#Digilent WaveForms Oscilloscope Acquisition
#Device Name: Discovery2
#Serial Number: SN:210321A35B9C
#Date Time: 2022-07-23 17:01:53.111
#Sample rate: 1600Hz
#Samples: 8000
#Trigger: Source: Channel 1 Type: Edge Condition: Rising Level: 1.47 V Hyst.: Auto HoldOff: 100 ns
#Channel 1: Range: 20 mV/div Offset: -1.5 V Attenuation: 1 X Sample Mode: Average
#Channel 2: Range: 20 mV/div Offset: -1.5 V Attenuation: 1 X Sample Mode: Average

Time (s),Channel 1 (V),Channel 2 (V)
0.7406250000000001,1.4801236721507822,1.4795822563309675
0.74125,1.4808010275949839,1.4785842427039217
0.7418750000000003,1.4818170607612866,1.4775862290768755
0.7425000000000002,1.482494416205488,1.4765882154498302
0.743125,1.4835104493717906,1.4755902018227847
0.7437499999999999,1.4838491270938912,1.4745921881957393
0.7443750000000002,1.484526482538093,1.4739268457777084
0.7450000000000001,1.4852038379822947,1.4732615033596779
0.745625,1.4855425157043955,1.4729288321506626
0.7462500000000003,1.4855425157043955,1.4725961609416474
0.7468750000000002,1.4855425157043955,1.4725961609416474
0.7475,1.4852038379822947,1.4729288321506626
0.7481249999999999,1.484865160260194,1.4732615033596776
0.7487500000000002,1.4845264825380928,1.4739268457777086
0.7493750000000001,1.4841878048159922,1.474592188195739
0.75,1.4835104493717906,1.4755902018227847
0.7506249999999999,1.482833093927589,1.4762555442408147
0.7512500000000002,1.4818170607612864,1.4772535578678607
0.7518750000000001,1.4811397053170847,1.4779189002858912
0.7525,1.480462349872883,1.478916913912937
0.7531250000000003,1.4797849944286812,1.479914927539983
0.7537500000000001,1.4794463167065806,1.4805802699580133
0.754375,1.4787689612623791,1.4812456123760438
0.7549999999999999,1.4780916058181777,1.4819109547940739
0.7556250000000002,1.4784302835402783,1.4822436260030893
0.7562500000000001,1.4784302835402783,1.4825762972121046
0.756875,1.4787689612623791,1.4825762972121046
0.7575000000000003,1.4787689612623793,1.4822436260030891
0.7581250000000002,1.47910763898448,1.481910954794074
0.75875,1.4797849944286814,1.4815782835850588
0.7593749999999999,1.4804623498728828,1.4809129411670288
0.7600000000000002,1.4811397053170847,1.4799149275399828
0.7606250000000001,1.4821557384833872,1.478916913912937
0.76125,1.4828330939275889,1.4782515714949065
0.7618750000000003,1.4835104493717908,1.476920886658845
0.7625000000000002,1.4841878048159922,1.4759228730318
0.763125,1.4848651602601939,1.4752575306137694
0.7637499999999999,1.4852038379822945,1.474259516986724
0.7643750000000002,1.4855425157043955,1.473594174568693
0.7650000000000001,1.4855425157043955,1.4729288321506626
0.765625,1.4855425157043955,1.472263489732632
0.7662499999999999,1.4855425157043955,1.472263489732632
0.7668750000000002,1.4855425157043955,1.4719308185236168
0.7675000000000001,1.4855425157043955,1.472263489732632
0.768125,1.4852038379822947,1.4725961609416474
0.7687500000000003,1.4845264825380928,1.473261503359678
0.7693750000000001,1.4838491270938914,1.4735941745686931
0.77,1.4831717716496897,1.474592188195739
0.7706249999999999,1.4824944162054883,1.4755902018227842
0.7712500000000002,1.4818170607612864,1.476255544240815
0.7718750000000001,1.4811397053170847,1.4772535578678607
0.7725,1.480462349872883,1.4782515714949065
0.7731250000000003,1.4797849944286812,1.4789169139129374
0.7737500000000002,1.4794463167065806,1.4799149275399828
0.774375,1.47910763898448,1.4805802699580133
0.7749999999999999,1.4787689612623793,1.4812456123760436
0.7756250000000002,1.4784302835402783,1.4815782835850588
0.7762500000000001,1.4784302835402783,1.481910954794074
0.776875,1.4784302835402783,1.481910954794074
0.7775000000000003,1.4787689612623791,1.4815782835850586
0.7781250000000002,1.4787689612623791,1.4812456123760438
0.77875,1.47910763898448,1.4809129411670285
0.7793749999999999,1.4794463167065803,1.4799149275399832
0.7800000000000002,1.4797849944286816,1.479249585121952
0.7806250000000001,1.480462349872883,1.4785842427039217
0.78125,1.4811397053170847,1.477586229076876
0.7818749999999999,1.4814783830391853,1.4765882154498307
0.7825000000000002,1.482494416205488,1.4755902018227847
0.7831250000000001,1.4828330939275889,1.474592188195739
0.78375,1.4835104493717906,1.4739268457777084
0.7843750000000003,1.4838491270938916,1.4732615033596776
0.7850000000000001,1.4841878048159922,1.4725961609416474
0.785625,1.484526482538093,1.472263489732632
0.7862499999999999,1.484526482538093,1.471930818523617
0.7868750000000002,1.484526482538093,1.4719308185236168
0.7875000000000001,1.484526482538093,1.4719308185236168
0.788125,1.4838491270938914,1.472263489732632
0.7887500000000003,1.4835104493717903,1.4729288321506628
0.7893750000000002,1.4828330939275889,1.4735941745686931
0.79,1.482494416205488,1.474592188195739
0.7906249999999999,1.481478383039186,1.4755902018227842
0.7912500000000002,1.4808010275949839,1.476255544240815
0.7918750000000001,1.4801236721507822,1.4772535578678607
0.7925,1.4794463167065806,1.4779189002858912
0.7931250000000003,1.478768961262379,1.4789169139129374
0.7937500000000002,1.4784302835402783,1.4799149275399828
0.794375,1.4777529280960766,1.4805802699580133
0.7949999999999999,1.477414250373976,1.4812456123760436
0.7956250000000002,1.4774142503739758,1.481578283585059
0.7962500000000001,1.4774142503739758,1.481910954794074
0.796875,1.4777529280960766,1.481910954794074
0.7974999999999999,1.478430283540278,1.481910954794074
0.7981250000000002,1.4787689612623791,1.4815782835850588
0.7987500000000001,1.4794463167065806,1.4812456123760438
0.799375,1.4801236721507822,1.4805802699580133
0.8000000000000003,1.481139705317085,1.4795822563309673
0.8006250000000001,1.4818170607612864,1.478916913912937
0.80125,1.4821557384833872,1.4779189002858912
0.8018749999999999,1.4828330939275887,1.476920886658846
0.8025000000000002,1.4831717716496897,1.4759228730318
0.8031250000000001,1.4838491270938914,1.4749248594047542
0.80375,1.4841878048159922,1.4739268457777084
0.8043750000000003,1.4845264825380933,1.4732615033596776
0.8050000000000002,1.4848651602601939,1.4729288321506626
0.805625,1.4852038379822947,1.472263489732632
0.8062499999999999,1.4852038379822947,1.472263489732632
0.8068750000000002,1.4855425157043955,1.472263489732632
0.8075000000000001,1.4855425157043955,1.472263489732632
0.808125,1.4852038379822947,1.4729288321506626
0.8087500000000003,1.4848651602601937,1.473261503359678
0.8093750000000002,1.4841878048159922,1.4735941745686931
0.81,1.4831717716496897,1.4742595169867236
0.8106249999999999,1.4824944162054883,1.475257530613769
0.8112500000000002,1.4814783830391853,1.4759228730318004
0.8118750000000001,1.4808010275949839,1.4769208866588455
0.8125,1.4801236721507822,1.4779189002858912
0.8131249999999999,1.4794463167065808,1.4789169139129366
0.8137500000000002,1.4787689612623791,1.4795822563309675
0.8143750000000001,1.4784302835402783,1.480247598748998
0.815,1.4780916058181774,1.4809129411670285
0.8156250000000003,1.4780916058181772,1.481245612376044
0.8162500000000001,1.4777529280960766,1.4815782835850588
0.816875,1.4777529280960766,1.4815782835850588
0.8174999999999999,1.4777529280960766,1.4815782835850588
0.8181250000000002,1.4777529280960766,1.4812456123760438
0.8187500000000001,1.4784302835402783,1.4809129411670285
0.819375,1.4787689612623791,1.480247598748998
0.8200000000000003,1.4794463167065808,1.4792495851219518
0.8206250000000002,1.4801236721507822,1.4782515714949065
0.82125,1.4811397053170847,1.477586229076876
0.8218749999999999,1.4818170607612862,1.4765882154498307
0.8225000000000002,1.482494416205488,1.4755902018227847
0.8231250000000001,1.4828330939275889,1.474592188195739
0.82375,1.4831717716496897,1.4739268457777084
0.8243750000000003,1.4838491270938916,1.4729288321506624
0.8250000000000002,1.4841878048159922,1.4725961609416474
0.825625,1.484526482538093,1.472263489732632
0.8262499999999999,1.4848651602601937,1.471930818523617
0.8268750000000002,1.4848651602601939,1.4715981473146018
0.8275000000000001,1.4848651602601939,1.4719308185236168
0.828125,1.484526482538093,1.472263489732632
0.8287499999999999,1.4841878048159924,1.4729288321506624
0.8293750000000002,1.4838491270938914,1.4735941745686931
0.8300000000000001,1.4835104493717906,1.4742595169867236
0.830625,1.4828330939275889,1.4749248594047542
0.8312500000000003,1.482155738483387,1.4759228730318004
0.8318750000000001,1.4814783830391856,1.4769208866588455
0.8325,1.4808010275949839,1.4779189002858912
0.8331249999999999,1.4801236721507824,1.4785842427039215
0.8337500000000002,1.4794463167065806,1.4795822563309675
0.8343750000000001,1.47910763898448,1.480247598748998
0.835,1.4784302835402783,1.4809129411670285
0.8356250000000003,1.4780916058181772,1.481245612376044
0.8362500000000002,1.4777529280960766,1.4815782835850588
0.836875,1.4777529280960766,1.4815782835850588
0.8374999999999999,1.4780916058181772,1.481245612376044
0.8381250000000002,1.4784302835402783,1.4809129411670285
0.8387500000000001,1.4787689612623791,1.4805802699580133
0.839375,1.4794463167065806,1.4799149275399828
0.8400000000000003,1.4804623498728835,1.4789169139129368
0.8406250000000002,1.4814783830391856,1.4782515714949065
0.84125,1.482494416205488,1.4772535578678607
0.8418749999999999,1.4831717716496895,1.4765882154498304
0.8425000000000002,1.4841878048159927,1.4755902018227842
0.8431250000000001,1.4852038379822947,1.474592188195739
0.84375,1.4858811934264964,1.4739268457777084
0.8443749999999999,1.4865585488706978,1.473261503359678
0.8450000000000002,1.4872359043148997,1.4725961609416474
0.8456250000000001,1.4875745820370003,1.472263489732632
0.84625,1.4879132597591012,1.4719308185236168
0.8468750000000003,1.487574582037,1.4719308185236168
0.8475000000000001,1.4872359043148997,1.4719308185236168
0.848125,1.486558548870698,1.472263489732632
0.8487499999999999,1.4858811934264966,1.4729288321506624
0.8493750000000002,1.4848651602601939,1.4735941745686931
0.8500000000000001,1.4841878048159922,1.4742595169867236
0.850625,1.4831717716496897,1.4752575306137694
0.8512500000000003,1.482155738483387,1.4759228730318004
0.8518750000000002,1.4814783830391856,1.4769208866588455
0.8525,1.480462349872883,1.4779189002858912
0.8531249999999999,1.4801236721507824,1.4789169139129366
0.8537500000000002,1.4797849944286814,1.4795822563309675
0.8543750000000001,1.47910763898448,1.480247598748998
0.855,1.4787689612623791,1.4809129411670285
0.8556250000000003,1.4784302835402783,1.4815782835850588
0.8562500000000002,1.4784302835402783,1.4815782835850588
0.856875,1.4780916058181774,1.4815782835850588
0.8574999999999999,1.478430283540278,1.481245612376044
0.8581250000000002,1.4784302835402785,1.4812456123760436
0.8587500000000001,1.47910763898448,1.4805802699580133
0.859375,1.4794463167065806,1.4799149275399828
0.8599999999999999,1.480123672150782,1.4792495851219525
0.8606250000000002,1.4808010275949839,1.4782515714949065
0.8612500000000001,1.4814783830391856,1.477586229076876
0.861875,1.4821557384833872,1.4765882154498302
0.8625000000000003,1.482833093927589,1.4755902018227842
0.8631250000000001,1.4835104493717906,1.474592188195739
0.86375,1.4838491270938914,1.4735941745686931
0.8643749999999999,1.4845264825380928,1.4729288321506628
0.8650000000000002,1.4848651602601939,1.472263489732632
0.8656250000000001,1.4852038379822947,1.4719308185236168
0.86625,1.4852038379822947,1.4715981473146016
0.8668750000000003,1.4852038379822945,1.4715981473146016
0.8675000000000002,1.4848651602601939,1.4715981473146016
0.868125,1.4848651602601939,1.4719308185236168
0.8687499999999999,1.4845264825380933,1.4725961609416471
0.8693750000000002,1.4841878048159922,1.4732615033596779
0.8700000000000001,1.4835104493717906,1.4739268457777084
0.870625,1.4828330939275889,1.474592188195739
0.8712500000000003,1.482155738483387,1.475590201822785
0.8718750000000002,1.4814783830391856,1.4765882154498302
0.8725,1.4808010275949839,1.477586229076876
0.8731249999999999,1.4804623498728833,1.4782515714949063
0.8737500000000002,1.4797849944286812,1.4792495851219525
0.8743750000000001,1.4794463167065806,1.4799149275399828
0.875,1.47910763898448,1.4805802699580133
0.8756249999999999,1.47910763898448,1.4809129411670283
0.8762500000000002,1.47910763898448,1.4812456123760438
0.8768750000000001,1.47910763898448,1.4812456123760438
0.8775,1.4794463167065806,1.4809129411670285
0.8781250000000003,1.4797849944286816,1.4802475987489978
0.8787500000000001,1.4801236721507822,1.4799149275399828
0.879375,1.4801236721507822,1.4792495851219523
0.8799999999999999,1.4808010275949837,1.478584242703922
0.8806250000000002,1.4818170607612864,1.477586229076876
0.8812500000000001,1.482494416205488,1.4765882154498302
0.881875,1.4828330939275889,1.4759228730318
0.8825000000000003,1.4838491270938916,1.4749248594047537
0.8831250000000002,1.4841878048159922,1.4739268457777084
0.88375,1.4848651602601939,1.4732615033596779
0.8843749999999999,1.4852038379822945,1.4722634897326325
0.8850000000000002,1.4858811934264964,1.4715981473146016
0.8856250000000001,1.486558548870698,1.4712654761055863
0.88625,1.486558548870698,1.470932804896571
0.8868750000000003,1.4868972265927987,1.4712654761055863
0.8875000000000002,1.486558548870698,1.4712654761055863
0.888125,1.4862198711485972,1.4715981473146016
0.8887499999999999,1.4858811934264966,1.4722634897326319
0.8893750000000002,1.4852038379822943,1.4729288321506628
0.8900000000000001,1.4841878048159922,1.4732615033596779
0.890625,1.4835104493717906,1.4742595169867236
0.8912499999999999,1.4824944162054885,1.475257530613769
0.8918750000000002,1.4814783830391856,1.476255544240815
0.8925000000000001,1.480462349872883,1.4772535578678607
0.893125,1.4794463167065806,1.4779189002858912
0.8937500000000003,1.4791076389844797,1.4785842427039222
0.8943750000000001,1.4787689612623791,1.4795822563309675
0.895,1.4784302835402783,1.480247598748998
0.8956249999999999,1.4780916058181777,1.480580269958013
0.8962500000000002,1.4780916058181774,1.4809129411670285
0.8968750000000001,1.4780916058181774,1.4812456123760438
0.8975,1.4780916058181774,1.4809129411670285
0.8981250000000003,1.4784302835402783,1.480580269958013
0.8987500000000002,1.4784302835402783,1.480247598748998
0.899375,1.4787689612623791,1.4795822563309675
0.8999999999999999,1.4794463167065803,1.4785842427039222
0.9006250000000002,1.4801236721507822,1.4779189002858912
0.9012500000000001,1.4808010275949839,1.4769208866588455
0.901875,1.4814783830391856,1.4759228730318
0.9025000000000003,1.4824944162054883,1.4749248594047537
0.9031250000000002,1.4831717716496897,1.4739268457777084
0.90375,1.4838491270938914,1.4732615033596779
0.9043749999999999,1.484187804815992,1.4725961609416476
0.9050000000000002,1.4845264825380933,1.4719308185236166
0.9056250000000001,1.4848651602601939,1.4712654761055863
0.90625,1.4848651602601939,1.470932804896571
0.9068749999999999,1.4852038379822945,1.470932804896571
0.9075000000000002,1.4848651602601939,1.4712654761055863
0.9081250000000001,1.4848651602601939,1.4715981473146016
0.90875,1.484526482538093,1.472263489732632
0.9093750000000003,1.4838491270938912,1.4729288321506628
0.9100000000000001,1.4835104493717906,1.4735941745686931
0.910625,1.4828330939275889,1.474592188195739
0.9112499999999999,1.4818170607612868,1.4752575306137692
0.9118750000000002,1.4814783830391856,1.476255544240815
0.9125000000000001,1.4808010275949839,1.4772535578678607
0.913125,1.4801236721507822,1.4782515714949065
0.9137500000000003,1.4794463167065803,1.4789169139129374
0.9143750000000002,1.47910763898448,1.4799149275399828
0.915,1.4787689612623791,1.480247598748998
0.9156249999999999,1.4787689612623791,1.480580269958013
0.9162500000000002,1.4784302835402783,1.4809129411670285
0.9168750000000001,1.4787689612623791,1.4809129411670285
0.9175,1.47910763898448,1.4809129411670285
0.9181250000000003,1.4791076389844802,1.480580269958013
0.9187500000000002,1.4794463167065806,1.4799149275399828
0.919375,1.4797849944286814,1.4792495851219523
0.9199999999999999,1.4808010275949834,1.478584242703922
0.9206250000000002,1.4811397053170852,1.4779189002858908
0.9212500000000001,1.4821557384833872,1.4769208866588455
0.921875,1.4828330939275889,1.4759228730318
0.9224999999999999,1.4835104493717903,1.4745921881957396
0.9231250000000002,1.4841878048159922,1.4739268457777084
0.9237500000000001,1.4852038379822947,1.4729288321506626
0.924375,1.4858811934264964,1.472263489732632
0.9250000000000003,1.486558548870698,1.4715981473146014
0.9256250000000001,1.486558548870698,1.4712654761055863
0.92625,1.4868972265927989,1.470932804896571
0.9268749999999999,1.4872359043148995,1.470932804896571
0.9275000000000002,1.4872359043148997,1.4712654761055863
0.9281250000000001,1.4868972265927989,1.4715981473146016
0.92875,1.4862198711485972,1.4719308185236168
0.9293750000000003,1.485881193426496,1.4725961609416476
0.9300000000000002,1.4848651602601939,1.4732615033596779
0.930625,1.4835104493717906,1.4742595169867236
0.9312499999999999,1.4824944162054885,1.475257530613769
0.9318750000000002,1.4818170607612864,1.4759228730318
0.9325000000000001,1.4811397053170847,1.4769208866588455
0.933125,1.480462349872883,1.4779189002858912
0.9337500000000003,1.4797849944286812,1.4785842427039222
0.9343750000000002,1.4794463167065806,1.4795822563309675
0.935,1.4787689612623791,1.4799149275399828
0.9356249999999999,1.4787689612623791,1.4802475987489978
0.9362500000000002,1.4784302835402783,1.4805802699580133
0.9368750000000001,1.4784302835402783,1.4805802699580133
0.9375,1.4787689612623791,1.480247598748998
0.9381249999999999,1.4791076389844797,1.480247598748998
0.9387500000000002,1.47910763898448,1.4795822563309675
0.9393750000000001,1.4794463167065806,1.4792495851219523
0.94,1.4801236721507822,1.4782515714949065
0.9406250000000003,1.480801027594984,1.4775862290768755
0.9412500000000001,1.4814783830391856,1.4765882154498302
0.941875,1.4821557384833872,1.4755902018227847
0.9424999999999999,1.4831717716496893,1.4745921881957393
0.9431250000000002,1.4838491270938914,1.4735941745686931
0.9437500000000001,1.4841878048159922,1.4729288321506626
0.944375,1.4848651602601939,1.472263489732632
0.9450000000000003,1.4855425157043958,1.4715981473146014
0.9456250000000002,1.4858811934264964,1.4712654761055863
0.94625,1.4858811934264964,1.470932804896571
0.9468749999999999,1.4858811934264964,1.470932804896571
0.9475000000000002,1.4855425157043955,1.4712654761055863
0.9481250000000001,1.4852038379822947,1.4712654761055863
0.94875,1.4848651602601939,1.4719308185236168
0.9493750000000003,1.484187804815992,1.4725961609416476
0.9500000000000002,1.4838491270938914,1.4732615033596779
0.950625,1.4831717716496897,1.4742595169867236
0.9512499999999999,1.4824944162054883,1.475257530613769
0.9518750000000002,1.4814783830391853,1.4762555442408154
0.9525000000000001,1.4808010275949839,1.4772535578678607
0.953125,1.4797849944286814,1.4779189002858912
0.9537499999999999,1.4794463167065808,1.4789169139129366
0.9543750000000002,1.4787689612623791,1.4799149275399828
0.9550000000000001,1.4784302835402783,1.4805802699580133
0.955625,1.4780916058181774,1.4809129411670285
0.9562500000000003,1.4780916058181774,1.4812456123760438
0.9568750000000001,1.4780916058181774,1.4812456123760438
0.9575,1.4784302835402783,1.4812456123760438
0.9581249999999999,1.478768961262379,1.4809129411670288
0.9587500000000002,1.47910763898448,1.4805802699580133
0.9593750000000001,1.4797849944286814,1.4799149275399828
0.96,1.480462349872883,1.4792495851219523
0.9606250000000003,1.481139705317085,1.478251571494906
0.9612500000000002,1.4818170607612864,1.4772535578678607
0.961875,1.482494416205488,1.4765882154498302
0.9624999999999999,1.4831717716496895,1.475590201822785
0.9631250000000002,1.4838491270938914,1.474592188195739
0.9637500000000001,1.484526482538093,1.4739268457777084
0.964375,1.4848651602601939,1.4732615033596779
0.9650000000000003,1.4855425157043955,1.4725961609416471
0.9656250000000002,1.4855425157043955,1.4719308185236168
0.96625,1.4855425157043955,1.4719308185236168
0.9668749999999999,1.4855425157043955,1.4719308185236168
0.9675000000000002,1.4852038379822947,1.471930818523617
0.9681250000000001,1.4852038379822947,1.472263489732632
0.96875,1.484526482538093,1.4729288321506626
0.9693749999999999,1.4841878048159924,1.473594174568693
0.9700000000000002,1.4835104493717906,1.4742595169867236
0.9706250000000001,1.482494416205488,1.4752575306137694
0.97125,1.4818170607612864,1.476255544240815
0.9718750000000003,1.4811397053170843,1.4772535578678612
0.9725000000000001,1.4801236721507822,1.4782515714949065
0.973125,1.4794463167065806,1.478916913912937
0.9737499999999999,1.4791076389844802,1.4802475987489974
0.9743750000000002,1.4784302835402783,1.4809129411670285
0.9750000000000001,1.4777529280960766,1.4815782835850588
0.975625,1.4774142503739758,1.481910954794074
0.9762500000000003,1.4774142503739758,1.4822436260030893
0.9768750000000002,1.4774142503739758,1.4822436260030893
0.9775,1.4777529280960766,1.4822436260030893
0.9781249999999999,1.4780916058181772,1.4819109547940743
0.9787500000000002,1.4784302835402783,1.4815782835850588
0.9793750000000001,1.47910763898448,1.4809129411670285
0.98,1.4797849944286814,1.480247598748998
0.9806250000000003,1.4804623498728835,1.4792495851219518
0.9812500000000002,1.4814783830391856,1.4782515714949065
0.981875,1.4821557384833872,1.4772535578678607
0.9824999999999999,1.4828330939275887,1.4765882154498304
0.9831250000000002,1.4835104493717908,1.4755902018227844
0.9837500000000001,1.4838491270938914,1.4749248594047542
0.984375,1.4841878048159922,1.4739268457777084
0.9849999999999999,1.4845264825380928,1.473261503359678
0.9856250000000002,1.4852038379822947,1.4729288321506626
0.9862500000000001,1.4852038379822947,1.4729288321506626
0.986875,1.4852038379822947,1.4729288321506626
0.9875000000000003,1.4848651602601937,1.4729288321506628
0.9881250000000001,1.484526482538093,1.4735941745686931
0.98875,1.4841878048159922,1.4739268457777084
0.9893749999999999,1.4838491270938916,1.4745921881957387
0.9900000000000002,1.4831717716496897,1.4752575306137694
0.9906250000000001,1.482494416205488,1.476255544240815
0.99125,1.4818170607612864,1.4772535578678607
0.9918750000000003,1.4811397053170845,1.478251571494907
0.9925000000000002,1.480462349872883,1.4792495851219523
0.993125,1.4801236721507822,1.4799149275399828
0.9937499999999999,1.4794463167065808,1.480912941167028
0.9943750000000002,1.47910763898448,1.4815782835850588
0.9950000000000001,1.4787689612623791,1.4822436260030893
0.995625,1.4787689612623791,1.4825762972121046
0.9962500000000003,1.4784302835402785,1.4825762972121048
0.9968750000000002,1.4787689612623791,1.4829089684211199
0.9975,1.47910763898448,1.4825762972121046
0.9981249999999999,1.4794463167065803,1.4822436260030896
0.9987500000000002,1.4797849944286816,1.4819109547940739
0.9993750000000001,1.4801236721507822,1.4812456123760438
1,1.480462349872883,1.480247598748998
1.0006249999999999,1.480462349872883,1.4792495851219527
1.0012500000000002,1.4808010275949839,1.4782515714949065
1.001875,1.4811397053170847,1.477586229076876
1.0025,1.4818170607612864,1.4765882154498302
1.0031250000000003,1.4818170607612866,1.4755902018227844
1.0037500000000001,1.4821557384833872,1.4749248594047542
1.004375,1.482494416205488,1.4742595169867236
1.005,1.4828330939275887,1.4735941745686933
1.0056250000000002,1.4831717716496897,1.4732615033596779
1.00625,1.4831717716496897,1.4729288321506626
1.006875,1.4835104493717906,1.4729288321506626
1.0075000000000003,1.4831717716496895,1.473261503359678
1.0081250000000002,1.4828330939275889,1.4735941745686931
1.00875,1.482494416205488,1.4739268457777084
1.009375,1.4818170607612866,1.4745921881957387
1.0100000000000002,1.4811397053170847,1.4755902018227847
1.010625,1.480462349872883,1.476255544240815
1.01125,1.4797849944286814,1.4772535578678607
1.0118750000000003,1.4791076389844797,1.4782515714949067
1.0125000000000002,1.4784302835402783,1.478916913912937
1.013125,1.4777529280960766,1.4799149275399828
1.01375,1.477414250373976,1.480912941167028
1.0143750000000002,1.476736894929774,1.481578283585059
1.0150000000000001,1.4760595394855724,1.4822436260030893
1.015625,1.4757208617634716,1.4825762972121046
1.0162499999999999,1.475382184041371,1.4829089684211196
1.0168750000000002,1.4753821840413708,1.4829089684211199
1.0175,1.4753821840413708,1.4829089684211199
1.018125,1.4757208617634716,1.4825762972121046
1.0187500000000003,1.4763982172076735,1.482243626003089
1.0193750000000001,1.477075572651875,1.4812456123760438
1.02,1.4774142503739758,1.4805802699580133
1.020625,1.4777529280960764,1.479582256330968
1.0212500000000002,1.4784302835402783,1.478916913912937
1.021875,1.47910763898448,1.4779189002858912
1.0225,1.4797849944286814,1.4769208866588455
1.0231250000000003,1.4801236721507824,1.4759228730317995
1.0237500000000002,1.4808010275949839,1.4749248594047542
1.024375,1.4814783830391856,1.4742595169867236
1.025,1.4818170607612862,1.4739268457777086
1.0256250000000002,1.4821557384833872,1.4735941745686931
1.02625,1.4821557384833872,1.4732615033596779
1.026875,1.4821557384833872,1.4732615033596779
1.0275000000000003,1.4818170607612862,1.473261503359678
1.0281250000000002,1.4811397053170847,1.4735941745686931
1.02875,1.4808010275949839,1.4742595169867236
1.029375,1.4801236721507824,1.474924859404754
1.0300000000000002,1.4794463167065803,1.475590201822785
1.0306250000000001,1.4787689612623791,1.4765882154498302
1.03125,1.4777529280960766,1.4772535578678607
1.0318749999999999,1.4770755726518752,1.478251571494906
1.0325000000000002,1.4763982172076733,1.4792495851219523
1.033125,1.4757208617634716,1.480247598748998
1.03375,1.4753821840413708,1.4812456123760438
1.0343750000000003,1.474704828597169,1.4819109547940743
1.0350000000000001,1.4743661508750683,1.4825762972121046
1.035625,1.4743661508750683,1.4829089684211199
1.03625,1.4743661508750683,1.483241639630135
1.0368750000000002,1.4743661508750683,1.4832416396301351
1.0375,1.47504350631927,1.4829089684211199
1.038125,1.4757208617634716,1.4825762972121046
1.0387500000000003,1.4760595394855727,1.4819109547940739
1.0393750000000002,1.4767368949297741,1.4812456123760438
1.04,1.4777529280960766,1.4805802699580133
1.040625,1.478430283540278,1.479582256330968
1.0412500000000002,1.4794463167065806,1.4785842427039217
1.041875,1.4801236721507822,1.477586229076876
1.0425,1.4814783830391856,1.4765882154498302
1.0431250000000003,1.4821557384833874,1.4755902018227844
1.0437500000000002,1.482494416205488,1.4749248594047542
1.044375,1.4828330939275889,1.4739268457777084
1.045,1.4831717716496895,1.473261503359678
1.0456250000000002,1.4835104493717906,1.4729288321506626
1.0462500000000001,1.4835104493717906,1.4729288321506626
1.046875,1.4835104493717906,1.4725961609416474
1.0474999999999999,1.4835104493717906,1.4729288321506624
1.0481250000000002,1.4831717716496897,1.4729288321506626
1.04875,1.4828330939275889,1.4735941745686931
1.049375,1.482494416205488,1.4742595169867236
1.0500000000000003,1.4818170607612862,1.4749248594047546
1.0506250000000001,1.4811397053170847,1.4759228730318
1.05125,1.480462349872883,1.4769208866588455
1.051875,1.4797849944286816,1.4779189002858908
1.0525000000000002,1.47910763898448,1.4785842427039217
1.053125,1.4784302835402783,1.4795822563309675
1.05375,1.4777529280960766,1.4805802699580133
1.0543750000000003,1.4770755726518747,1.481245612376044
1.0550000000000002,1.4767368949297741,1.481910954794074
1.055625,1.4767368949297741,1.4822436260030893
1.05625,1.4767368949297741,1.4825762972121044
1.0568750000000002,1.4767368949297741,1.4825762972121046
1.0575,1.477075572651875,1.4822436260030893
1.058125,1.4774142503739758,1.481910954794074
1.0587500000000003,1.4777529280960768,1.4812456123760436
1.0593750000000002,1.4784302835402783,1.4805802699580133
1.06,1.47910763898448,1.4799149275399828
1.060625,1.4797849944286812,1.4789169139129374
1.0612500000000002,1.4801236721507827,1.4779189002858908
1.0618750000000001,1.4811397053170847,1.4769208866588455
1.0625,1.4814783830391856,1.4759228730318
1.0631249999999999,1.482155738483387,1.4749248594047546
1.0637500000000002,1.4828330939275889,1.4739268457777084
1.064375,1.4831717716496897,1.4732615033596779
1.065,1.4831717716496897,1.4725961609416474
1.0656250000000003,1.4835104493717908,1.4722634897326319
1.0662500000000001,1.4838491270938914,1.4719308185236168
1.066875,1.4838491270938914,1.4715981473146016
1.0675,1.4838491270938914,1.4719308185236166
1.0681250000000002,1.4838491270938914,1.472263489732632
1.06875,1.4838491270938914,1.4725961609416474
1.069375,1.4838491270938914,1.4735941745686931
1.0700000000000003,1.4835104493717906,1.474259516986724
1.0706250000000002,1.4835104493717906,1.4752575306137694
1.07125,1.4831717716496897,1.476255544240815
1.071875,1.4824944162054883,1.4772535578678603
1.0725000000000002,1.4821557384833872,1.4779189002858912
1.073125,1.4818170607612864,1.4792495851219523
1.07375,1.4811397053170847,1.4799149275399828
1.0743750000000003,1.4808010275949837,1.4805802699580135
1.0750000000000002,1.480462349872883,1.4812456123760438
1.075625,1.4801236721507822,1.4815782835850588
1.07625,1.4794463167065808,1.4819109547940739
1.0768750000000002,1.478768961262379,1.4822436260030893
1.0775000000000001,1.4780916058181774,1.4822436260030893
1.078125,1.4780916058181774,1.481910954794074
1.0787499999999999,1.478430283540278,1.481245612376044
1.0793750000000002,1.4787689612623791,1.4805802699580133
1.08,1.4794463167065806,1.4799149275399828
1.080625,1.4801236721507822,1.4792495851219523
1.0812500000000003,1.480801027594984,1.4782515714949063
1.0818750000000001,1.4814783830391856,1.477586229076876
1.0825,1.4818170607612864,1.4765882154498302
1.083125,1.482155738483387,1.475590201822785
1.0837500000000002,1.4828330939275889,1.474592188195739
1.084375,1.4831717716496897,1.4739268457777084
1.085,1.4835104493717906,1.4732615033596779
1.0856250000000003,1.4838491270938914,1.4729288321506624
1.0862500000000002,1.4838491270938914,1.4725961609416474
1.086875,1.4838491270938914,1.4725961609416474
1.0875,1.4838491270938914,1.4729288321506624
1.0881250000000002,1.4831717716496897,1.4732615033596779
1.08875,1.4828330939275889,1.4735941745686931
1.089375,1.4821557384833872,1.4739268457777084
1.0900000000000003,1.4814783830391853,1.4745921881957393
1.0906250000000002,1.4811397053170847,1.4755902018227847
1.09125,1.480462349872883,1.476255544240815
1.091875,1.479446316706581,1.4772535578678603
1.0925000000000002,1.478768961262379,1.4782515714949067
1.0931250000000001,1.4780916058181774,1.478916913912937
1.09375,1.4774142503739758,1.4799149275399828
1.0943749999999999,1.4770755726518752,1.480912941167028
1.0950000000000002,1.4763982172076733,1.4815782835850588
1.095625,1.4760595394855724,1.481910954794074
1.09625,1.4757208617634716,1.4822436260030893
1.0968750000000003,1.4757208617634718,1.4822436260030893
1.0975000000000001,1.4760595394855724,1.4822436260030893
1.098125,1.4767368949297741,1.481910954794074
1.09875,1.4774142503739756,1.481578283585059
1.0993750000000002,1.4780916058181774,1.4805802699580133
1.1,1.4787689612623791,1.480247598748998
1.100625,1.4794463167065806,1.4792495851219523
1.1012500000000003,1.4804623498728833,1.4785842427039213
1.1018750000000002,1.4811397053170847,1.477586229076876
1.1025,1.4818170607612864,1.4765882154498302
1.103125,1.482155738483387,1.475590201822785
1.1037500000000002,1.4828330939275889,1.4749248594047542
1.104375,1.4831717716496897,1.4742595169867236
1.105,1.4835104493717906,1.4735941745686931
1.1056250000000003,1.4835104493717906,1.4729288321506626
1.1062500000000002,1.4835104493717906,1.4729288321506626
1.106875,1.4835104493717906,1.4729288321506626
1.1075,1.4835104493717906,1.4729288321506626
1.1081250000000002,1.4831717716496895,1.473261503359678
1.1087500000000001,1.482494416205488,1.4739268457777084
1.109375,1.4821557384833872,1.474592188195739
1.1099999999999999,1.4814783830391858,1.4752575306137692
1.1106250000000002,1.480462349872883,1.476255544240815
1.11125,1.4797849944286814,1.4769208866588455
1.111875,1.47910763898448,1.4779189002858912
1.1125000000000003,1.4780916058181772,1.4789169139129374
1.1131250000000001,1.4774142503739758,1.4799149275399828
1.11375,1.4767368949297741,1.4805802699580133
1.114375,1.4760595394855727,1.4815782835850584
1.1150000000000002,1.4757208617634716,1.4822436260030893
1.115625,1.4757208617634716,1.4829089684211199
1.11625,1.4753821840413708,1.4829089684211199
1.1168750000000003,1.4753821840413708,1.483241639630135
1.1175000000000002,1.4753821840413708,1.4829089684211199
1.118125,1.4757208617634716,1.4825762972121046
1.11875,1.4760595394855722,1.4822436260030896
1.1193750000000002,1.4763982172076733,1.4815782835850588
1.12,1.477075572651875,1.4809129411670285
1.120625,1.4777529280960766,1.4799149275399828
1.1212500000000003,1.4784302835402785,1.4792495851219516
1.1218750000000002,1.47910763898448,1.4779189002858912
1.1225,1.4794463167065806,1.4769208866588455
1.123125,1.480123672150782,1.4762555442408152
1.1237500000000002,1.480801027594984,1.4755902018227844
1.1243750000000001,1.4814783830391856,1.4749248594047542
1.125,1.4818170607612864,1.4742595169867236
1.1256249999999999,1.482155738483387,1.4739268457777086
1.1262500000000002,1.482494416205488,1.4735941745686931
1.126875,1.482494416205488,1.4735941745686931
1.1275,1.482494416205488,1.4735941745686931
1.1281250000000003,1.482155738483387,1.4739268457777086
1.1287500000000001,1.4818170607612864,1.474592188195739
1.129375,1.4811397053170847,1.4752575306137694
1.13,1.480801027594984,1.4762555442408145
1.1306250000000002,1.480462349872883,1.4769208866588455
1.13125,1.4797849944286814,1.4779189002858912
1.131875,1.47910763898448,1.478916913912937
1.1325000000000003,1.478430283540278,1.479914927539983
1.1331250000000002,1.4777529280960766,1.4805802699580133
1.13375,1.477075572651875,1.4815782835850588
1.134375,1.4767368949297743,1.4825762972121042
1.1350000000000002,1.4760595394855724,1.4832416396301351
1.135625,1.4757208617634716,1.4835743108391504
1.13625,1.4757208617634716,1.4839069820481656
1.1368750000000003,1.4753821840413708,1.4839069820481656
1.1375000000000002,1.4753821840413708,1.4839069820481656
1.138125,1.4757208617634716,1.4835743108391504
1.13875,1.4760595394855722,1.48290896842112
1.1393750000000002,1.4763982172076735,1.4822436260030891
1.1400000000000001,1.4767368949297741,1.4815782835850588
1.140625,1.4774142503739758,1.4805802699580133
1.1412499999999999,1.4780916058181772,1.479914927539983
1.1418750000000002,1.4784302835402783,1.478916913912937
1.1425,1.47910763898448,1.4779189002858912
1.143125,1.4797849944286814,1.4769208866588455
1.1437500000000003,1.4804623498728833,1.4759228730317997
1.1443750000000001,1.4808010275949839,1.4752575306137694
1.145,1.4811397053170847,1.474592188195739
1.145625,1.4814783830391853,1.4742595169867239
1.1462500000000002,1.4814783830391856,1.4739268457777084
1.146875,1.4818170607612864,1.4735941745686931
1.1475,1.4818170607612864,1.4735941745686931
1.1481250000000003,1.4814783830391853,1.4739268457777086
1.1487500000000002,1.4811397053170847,1.4742595169867236
1.149375,1.4808010275949839,1.4752575306137694
1.15,1.4804623498728833,1.4759228730317997
1.1506250000000002,1.4797849944286814,1.4769208866588455
1.15125,1.4794463167065806,1.477586229076876
1.151875,1.4787689612623791,1.4785842427039217
1.1525000000000003,1.4780916058181772,1.4795822563309677
1.1531250000000002,1.4777529280960766,1.480247598748998
1.15375,1.4774142503739758,1.4812456123760438
1.154375,1.4770755726518752,1.4819109547940739
1.1550000000000002,1.476398217207673,1.4825762972121048
1.1556250000000001,1.4760595394855724,1.4829089684211199
1.15625,1.4757208617634716,1.4832416396301351
1.1568749999999999,1.4757208617634716,1.4832416396301351
1.1575000000000002,1.4757208617634716,1.4832416396301351
1.158125,1.4763982172076733,1.4829089684211199
1.15875,1.4763982172076733,1.4822436260030893
1.1593750000000003,1.4767368949297743,1.4815782835850584
1.1600000000000001,1.4774142503739758,1.4805802699580133
1.160625,1.4777529280960766,1.4799149275399828
1.16125,1.478430283540278,1.4789169139129374
1.1618750000000002,1.4787689612623791,1.4779189002858912
1.1625,1.4794463167065806,1.4765882154498302
1.163125,1.4801236721507822,1.4759228730318
1.1637500000000003,1.4804623498728833,1.474924859404754
1.1643750000000002,1.4808010275949839,1.4742595169867236
1.165,1.4814783830391856,1.4735941745686931
1.165625,1.4814783830391856,1.473261503359678
1.1662500000000002,1.4818170607612864,1.4729288321506626
1.166875,1.4814783830391856,1.4725961609416474
1.1675,1.4814783830391856,1.4729288321506626
1.1681250000000003,1.4811397053170845,1.473261503359678
1.1687500000000002,1.4808010275949839,1.4735941745686931
1.169375,1.4801236721507822,1.4742595169867236
1.17,1.4794463167065808,1.474924859404754
1.1706250000000002,1.478768961262379,1.4759228730318004
1.1712500000000001,1.4780916058181774,1.4769208866588455
1.171875,1.4777529280960766,1.4779189002858912
1.1724999999999999,1.4770755726518752,1.4789169139129366
1.1731250000000002,1.4763982172076733,1.4799149275399828
1.17375,1.4757208617634716,1.4805802699580133
1.174375,1.47504350631927,1.4815782835850588
1.1750000000000003,1.4747048285971691,1.4822436260030896
1.1756250000000001,1.4747048285971691,1.4825762972121046
1.17625,1.4743661508750683,1.4829089684211199
1.176875,1.474704828597169,1.4829089684211199
1.1775000000000002,1.4747048285971691,1.4829089684211199
1.178125,1.47504350631927,1.4825762972121046
1.17875,1.4753821840413708,1.481910954794074
1.1793750000000003,1.4757208617634718,1.4812456123760436
1.1800000000000002,1.4763982172076733,1.4805802699580133
1.180625,1.4767368949297741,1.4795822563309675
1.18125,1.4774142503739756,1.4785842427039222
1.1818750000000002,1.4784302835402783,1.4779189002858912
1.1825,1.47910763898448,1.4765882154498302
1.183125,1.4797849944286814,1.4759228730318
1.1837500000000003,1.480801027594984,1.474924859404754
1.1843750000000002,1.4814783830391856,1.4742595169867236
1.185,1.4821557384833872,1.4735941745686931
1.185625,1.4828330939275887,1.473261503359678
1.1862500000000002,1.4835104493717903,1.4729288321506626
1.1868750000000001,1.4831717716496897,1.4729288321506626
1.1875,1.4828330939275889,1.4729288321506626
1.1881249999999999,1.4821557384833874,1.4729288321506626
1.1887500000000002,1.4814783830391856,1.4735941745686931
1.189375,1.480462349872883,1.4742595169867236
1.19,1.4797849944286814,1.4749248594047542
1.1906250000000003,1.4791076389844795,1.475590201822785
1.1912500000000001,1.4780916058181774,1.4765882154498302
1.191875,1.477075572651875,1.477586229076876
1.1925,1.4767368949297743,1.4785842427039213
1.1931250000000002,1.4760595394855724,1.4795822563309675
1.19375,1.4753821840413708,1.480247598748998
1.194375,1.47504350631927,1.4812456123760438
1.1950000000000003,1.474704828597169,1.4819109547940743
1.1956250000000002,1.4743661508750683,1.4822436260030893
1.19625,1.4740274731529674,1.4825762972121046
1.196875,1.4740274731529674,1.4825762972121046
1.1975000000000002,1.4743661508750683,1.4825762972121046
1.198125,1.4743661508750683,1.4822436260030893
1.19875,1.4747048285971691,1.481910954794074
1.1993750000000003,1.475382184041371,1.4812456123760434
1.2000000000000002,1.4760595394855724,1.480247598748998
1.200625,1.4767368949297741,1.4795822563309675
1.20125,1.4774142503739756,1.4785842427039222
1.2018750000000002,1.4780916058181777,1.4775862290768753
1.2025000000000001,1.4787689612623791,1.476255544240815
1.203125,1.4794463167065806,1.4752575306137694
1.2037499999999999,1.480123672150782,1.4745921881957391
1.2043750000000002,1.480462349872883,1.4739268457777084
1.205,1.4811397053170847,1.4732615033596779
1.205625,1.4814783830391856,1.4725961609416474
1.2062500000000003,1.4818170607612864,1.472263489732632
1.2068750000000001,1.4818170607612864,1.472263489732632
1.2075,1.4818170607612864,1.4725961609416474
1.208125,1.4814783830391858,1.4725961609416474
1.2087500000000002,1.4811397053170847,1.4732615033596779
1.209375,1.4808010275949839,1.4739268457777084
1.21,1.4801236721507822,1.474592188195739
1.2106250000000003,1.4794463167065803,1.4755902018227849
1.2112500000000002,1.4787689612623791,1.476255544240815
1.211875,1.4780916058181774,1.4772535578678607
1.2125,1.4777529280960768,1.478251571494906
1.2131250000000002,1.477075572651875,1.4792495851219523
1.21375,1.4763982172076733,1.480247598748998
1.214375,1.4757208617634716,1.4809129411670285
1.2150000000000003,1.4753821840413706,1.4815782835850588
1.2156250000000002,1.47504350631927,1.4815782835850588
1.21625,1.4747048285971691,1.481910954794074
1.216875,1.4750435063192697,1.4822436260030891
1.2175000000000002,1.4750435063192702,1.4819109547940739
1.2181250000000001,1.4753821840413708,1.4815782835850588
1.21875,1.4757208617634716,1.4812456123760438
1.2193749999999999,1.476398217207673,1.4805802699580135
1.2200000000000002,1.477075572651875,1.4799149275399828
1.220625,1.4777529280960766,1.478916913912937
1.22125,1.4784302835402783,1.4779189002858912
1.2218750000000003,1.4794463167065808,1.4769208866588452
1.2225000000000001,1.4801236721507822,1.476255544240815
1.223125,1.480462349872883,1.4752575306137694
1.22375,1.481478383039185,1.4745921881957391
1.2243750000000002,1.4821557384833872,1.4735941745686931
1.225,1.482494416205488,1.4729288321506626
1.225625,1.4828330939275889,1.4725961609416474
1.2262500000000003,1.4831717716496897,1.472263489732632
1.2268750000000002,1.4831717716496897,1.472263489732632
1.2275,1.4831717716496897,1.4725961609416474
1.228125,1.482833093927589,1.4729288321506624
1.2287500000000002,1.4821557384833872,1.4732615033596779
1.229375,1.4814783830391856,1.4739268457777084
1.23,1.4808010275949839,1.4749248594047542
1.2306250000000003,1.480123672150782,1.4755902018227849
1.2312500000000002,1.4794463167065806,1.476255544240815
1.231875,1.4787689612623791,1.4772535578678607
1.2325,1.4780916058181777,1.478251571494906
1.2331250000000002,1.4774142503739756,1.4792495851219525
1.2337500000000001,1.477075572651875,1.4799149275399828
1.234375,1.4767368949297741,1.4805802699580133
1.2349999999999999,1.4763982172076735,1.4815782835850584
1.2356250000000002,1.4760595394855724,1.481910954794074
1.23625,1.4760595394855724,1.4822436260030893
1.236875,1.4760595394855724,1.4822436260030893
1.2375000000000003,1.4763982172076735,1.4819109547940739
1.2381250000000001,1.4767368949297741,1.4815782835850588
1.23875,1.477075572651875,1.4812456123760438
1.239375,1.4774142503739756,1.4802475987489985
1.2400000000000002,1.4780916058181774,1.4795822563309675
1.240625,1.4787689612623791,1.478916913912937
1.2412500000000002,1.4794463167065806,1.4779189002858912
1.241875,1.4801236721507822,1.4769208866588455
1.2425000000000002,1.4808010275949839,1.4759228730318
1.243125,1.4811397053170847,1.4749248594047542
1.2437500000000001,1.4814783830391856,1.4742595169867236
1.244375,1.4821557384833872,1.4735941745686931
1.245,1.482494416205488,1.4729288321506626
1.245625,1.4828330939275889,1.4725961609416474
1.24625,1.4828330939275889,1.472263489732632
1.2468750000000002,1.4828330939275889,1.4719308185236168
1.2475,1.4828330939275889,1.472263489732632
1.2481250000000002,1.482494416205488,1.4725961609416474
1.24875,1.4821557384833872,1.4729288321506626
1.2493750000000001,1.4814783830391856,1.4739268457777084
1.25,1.4808010275949839,1.474592188195739
1.250625,1.4801236721507822,1.4752575306137694
1.2512500000000002,1.47910763898448,1.4759228730318
1.251875,1.4787689612623791,1.4772535578678607
1.2525000000000002,1.4780916058181774,1.4782515714949065
1.253125,1.4774142503739758,1.4792495851219523
1.2537500000000001,1.477075572651875,1.4799149275399828
1.254375,1.4767368949297741,1.4809129411670285
1.2550000000000001,1.477075572651875,1.4815782835850588
1.255625,1.4767368949297741,1.4822436260030893
1.25625,1.4767368949297741,1.4825762972121046
1.2568750000000002,1.4767368949297741,1.4825762972121046
1.2575,1.477075572651875,1.4822436260030893
1.2581250000000002,1.4780916058181774,1.481910954794074
1.25875,1.4787689612623791,1.4815782835850588
1.2593750000000001,1.4797849944286814,1.4809129411670285
1.26,1.480462349872883,1.4799149275399828
1.260625,1.4814783830391856,1.4792495851219523
1.26125,1.4821557384833872,1.4782515714949065
1.261875,1.482494416205488,1.4769208866588455
1.2625000000000002,1.4828330939275889,1.476255544240815
1.263125,1.4835104493717906,1.4752575306137694
1.2637500000000002,1.4841878048159922,1.474592188195739
1.264375,1.484526482538093,1.4735941745686931
1.2650000000000001,1.4852038379822947,1.4729288321506626
1.265625,1.4855425157043955,1.4725961609416474
1.26625,1.4855425157043955,1.4725961609416474
1.2668750000000002,1.4855425157043955,1.4725961609416474
1.2675,1.4855425157043955,1.4725961609416474
1.2681250000000002,1.4852038379822947,1.4729288321506626
1.26875,1.4835104493717906,1.4735941745686931
1.2693750000000001,1.4821557384833872,1.4742595169867236
1.27,1.4811397053170847,1.4749248594047542
1.2706250000000001,1.480462349872883,1.4759228730318
1.27125,1.4794463167065806,1.4765882154498302
1.271875,1.4787689612623791,1.477586229076876
1.2725000000000002,1.4777529280960766,1.4785842427039217
1.273125,1.477075572651875,1.4792495851219523
1.2737500000000002,1.4760595394855724,1.480247598748998
1.274375,1.4757208617634716,1.4809129411670285
1.2750000000000001,1.47504350631927,1.4815782835850588
1.275625,1.4747048285971691,1.4822436260030893
1.27625,1.4747048285971691,1.4825762972121046
1.276875,1.4743661508750683,1.4825762972121046
1.2775,1.4747048285971691,1.4825762972121046
1.2781250000000002,1.4747048285971691,1.4822436260030893
1.27875,1.4753821840413708,1.481910954794074
1.2793750000000002,1.4757208617634716,1.4812456123760438
1.28,1.4763982172076733,1.4805802699580133
1.2806250000000001,1.477075572651875,1.4795822563309675
1.28125,1.4777529280960766,1.478916913912937
1.281875,1.4784302835402783,1.4779189002858912
1.2825000000000002,1.4794463167065806,1.4772535578678607
1.283125,1.4801236721507822,1.4759228730318
1.2837500000000002,1.480462349872883,1.4752575306137694
1.284375,1.4814783830391856,1.474592188195739
1.2850000000000001,1.4821557384833872,1.4739268457777084
1.285625,1.482494416205488,1.4735941745686931
1.2862500000000001,1.4828330939275889,1.4732615033596779
1.286875,1.4828330939275889,1.4732615033596779
1.2875,1.482494416205488,1.4732615033596779
1.2881250000000002,1.4821557384833872,1.4735941745686931
1.28875,1.4818170607612864,1.4739268457777084
1.2893750000000002,1.4814783830391856,1.474592188195739
1.29,1.4811397053170847,1.4755902018227847
1.2906250000000001,1.480462349872883,1.4765882154498302
1.29125,1.4801236721507822,1.4772535578678607
1.291875,1.4794463167065806,1.4782515714949065
1.2925,1.47910763898448,1.4792495851219523
1.293125,1.4780916058181774,1.480247598748998
1.2937500000000002,1.4774142503739758,1.4809129411670285
1.294375,1.477075572651875,1.481910954794074
1.2950000000000002,1.4763982172076733,1.4825762972121046
1.295625,1.4760595394855724,1.4829089684211199
1.2962500000000001,1.4760595394855724,1.4832416396301351
1.296875,1.4760595394855724,1.4835743108391504
1.2975,1.4763982172076733,1.4832416396301351
1.2981250000000002,1.477075572651875,1.4832416396301351
1.29875,1.4774142503739758,1.4829089684211199
1.2993750000000002,1.4777529280960766,1.4822436260030893
1.3,1.4784302835402783,1.4815782835850588
1.3006250000000001,1.4787689612623791,1.4805802699580133
1.30125,1.4794463167065806,1.4795822563309675
1.3018750000000001,1.4797849944286814,1.478916913912937
1.3025,1.4801236721507822,1.4779189002858912
1.303125,1.4808010275949839,1.4772535578678607
1.3037500000000002,1.4811397053170847,1.4765882154498302
1.304375,1.4818170607612864,1.4755902018227847
1.3050000000000002,1.4821557384833872,1.4749248594047542
1.305625,1.482494416205488,1.474592188195739
1.3062500000000001,1.4831717716496897,1.4742595169867236
1.306875,1.4831717716496897,1.4742595169867236
1.3075,1.4828330939275889,1.474592188195739
1.308125,1.482494416205488,1.4749248594047542
1.30875,1.482494416205488,1.4752575306137694
1.3093750000000002,1.4821557384833872,1.4759228730318
1.31,1.4818170607612864,1.4769208866588455
1.3106250000000002,1.4811397053170847,1.477586229076876
1.31125,1.4801236721507822,1.4785842427039217
1.3118750000000001,1.47910763898448,1.4792495851219523
1.3125,1.4787689612623791,1.480247598748998
1.313125,1.4780916058181774,1.4812456123760438
1.3137500000000002,1.4777529280960766,1.4822436260030893
1.314375,1.4774142503739758,1.4829089684211199
1.3150000000000002,1.477075572651875,1.4839069820481656
1.315625,1.4767368949297741,1.4842396532571809
1.3162500000000001,1.4763982172076733,1.4845723244661961
1.316875,1.4760595394855724,1.4849049956752114
1.3175000000000001,1.4760595394855724,1.4845723244661961
1.318125,1.4757208617634716,1.4842396532571809
1.31875,1.4760595394855724,1.4839069820481656
1.3193750000000002,1.4763982172076733,1.4832416396301351
1.32,1.477075572651875,1.4825762972121046
1.3206250000000002,1.4774142503739758,1.481910954794074
1.32125,1.4780916058181774,1.4809129411670285
1.3218750000000001,1.4784302835402783,1.4799149275399828
1.3225,1.47910763898448,1.478916913912937
1.323125,1.4797849944286814,1.4782515714949065
1.32375,1.4797849944286814,1.4772535578678607
1.324375,1.480462349872883,1.4765882154498302
1.3250000000000002,1.4808010275949839,1.4759228730318
1.325625,1.4811397053170847,1.4755902018227847
1.3262500000000002,1.4811397053170847,1.4752575306137694
1.326875,1.4814783830391856,1.4752575306137694
1.3275000000000001,1.4814783830391856,1.4752575306137694
1.328125,1.4811397053170847,1.4755902018227847
1.32875,1.4811397053170847,1.4759228730318
1.3293750000000002,1.4811397053170847,1.4769208866588455
1.33,1.4808010275949839,1.477586229076876
1.3306250000000002,1.480462349872883,1.4785842427039217
1.33125,1.4797849944286814,1.4792495851219523
1.3318750000000001,1.47910763898448,1.4805802699580133
1.3325,1.4777529280960766,1.4812456123760438
1.3331250000000001,1.4767368949297741,1.4822436260030893
1.33375,1.4760595394855724,1.4832416396301351
1.334375,1.4757208617634716,1.4839069820481656
1.3350000000000002,1.4757208617634716,1.4845723244661961
1.335625,1.4760595394855724,1.4849049956752114
1.3362500000000002,1.4763982172076733,1.4852376668842266
1.336875,1.4767368949297741,1.485570338093242
1.3375000000000001,1.477075572651875,1.4852376668842266
1.338125,1.4777529280960766,1.4852376668842266
1.33875,1.4780916058181774,1.4849049956752114
1.339375,1.4787689612623791,1.4842396532571809
1.34,1.4794463167065806,1.4835743108391504
1.3406250000000002,1.480462349872883,1.4825762972121046
1.34125,1.4814783830391856,1.481910954794074
1.3418750000000002,1.4828330939275889,1.4812456123760438
1.3425,1.4838491270938914,1.480247598748998
1.3431250000000001,1.484526482538093,1.4792495851219523
1.34375,1.4848651602601939,1.4782515714949065
1.344375,1.4855425157043955,1.477586229076876
1.3450000000000002,1.486558548870698,1.4769208866588455
1.345625,1.4872359043148997,1.4765882154498302
1.3462500000000002,1.4879132597591012,1.476255544240815
1.346875,1.488251937481202,1.476255544240815
1.3475000000000001,1.4889292929254037,1.4765882154498302
1.348125,1.4889292929254037,1.4769208866588455
1.3487500000000001,1.4879132597591012,1.4772535578678607
1.349375,1.4868972265927989,1.4779189002858912
1.35,1.4855425157043955,1.4785842427039217
1.3506250000000002,1.4841878048159922,1.4792495851219523
1.35125,1.4828330939275889,1.480247598748998
1.3518750000000002,1.4814783830391856,1.4812456123760438
1.3525,1.4797849944286814,1.4822436260030893
1.3531250000000001,1.4784302835402783,1.4832416396301351
1.35375,1.4767368949297741,1.4839069820481656
1.354375,1.47504350631927,1.4845723244661961
1.355,1.4740274731529674,1.4852376668842266
1.355625,1.4736887954308666,1.485570338093242
1.3562500000000002,1.4736887954308666,1.4859030093022572
1.356875,1.4736887954308666,1.4859030093022572
1.3575000000000002,1.4740274731529674,1.485570338093242
1.358125,1.4743661508750683,1.4852376668842266
1.3587500000000001,1.4747048285971691,1.4849049956752114
1.359375,1.4753821840413708,1.4842396532571809
1.36,1.4760595394855724,1.4835743108391504
1.3606250000000002,1.4767368949297741,1.4825762972121046
1.36125,1.4777529280960766,1.4815782835850588
1.3618750000000002,1.4787689612623791,1.4809129411670285
1.3625,1.4794463167065806,1.4795822563309675
1.3631250000000001,1.4801236721507822,1.478916913912937
1.36375,1.4808010275949839,1.4779189002858912
1.3643750000000001,1.4811397053170847,1.4772535578678607
1.365,1.4814783830391856,1.4765882154498302
1.365625,1.4818170607612864,1.4759228730318
1.3662500000000002,1.4821557384833872,1.4755902018227847
1.366875,1.4821557384833872,1.4755902018227847
1.3675000000000002,1.4818170607612864,1.4755902018227847
1.368125,1.4811397053170847,1.4759228730318
1.3687500000000001,1.480462349872883,1.476255544240815
1.369375,1.4797849944286814,1.4769208866588455
1.37,1.47910763898448,1.477586229076876
1.370625,1.4784302835402783,1.4785842427039217
1.37125,1.4780916058181774,1.4795822563309675
1.3718750000000002,1.4774142503739758,1.480247598748998
1.3725,1.477075572651875,1.4812456123760438
1.3731250000000002,1.4767368949297741,1.4822436260030893
1.37375,1.4767368949297741,1.4829089684211199
1.3743750000000001,1.4767368949297741,1.4839069820481656
1.375,1.4763982172076733,1.4842396532571809
1.375625,1.4767368949297741,1.4849049956752114
1.3762500000000002,1.4767368949297741,1.4852376668842266
1.376875,1.477075572651875,1.4852376668842266
1.3775000000000002,1.4777529280960766,1.4849049956752114
1.378125,1.4784302835402783,1.4849049956752114
1.3787500000000001,1.47910763898448,1.4845723244661961
1.379375,1.4797849944286814,1.4839069820481656
1.3800000000000001,1.480462349872883,1.4829089684211199
1.380625,1.4814783830391856,1.4822436260030893
1.38125,1.4821557384833872,1.4812456123760438
1.3818750000000002,1.482494416205488,1.480247598748998
1.3825,1.4828330939275889,1.4792495851219523
1.3831250000000002,1.4831717716496897,1.4782515714949065
1.38375,1.4835104493717906,1.477586229076876
1.3843750000000001,1.4841878048159922,1.4765882154498302
1.385,1.484526482538093,1.4759228730318
1.385625,1.484526482538093,1.4752575306137694
1.38625,1.484526482538093,1.4749248594047542
1.386875,1.484526482538093,1.4749248594047542
1.3875000000000002,1.484526482538093,1.4749248594047542
1.388125,1.484526482538093,1.4755902018227847
1.3887500000000002,1.484526482538093,1.4759228730318
1.389375,1.4841878048159922,1.4765882154498302
1.3900000000000001,1.4835104493717906,1.4772535578678607
1.390625,1.4831717716496897,1.4782515714949065
1.39125,1.482494416205488,1.478916913912937
1.3918750000000002,1.4814783830391856,1.4799149275399828
1.3925,1.4808010275949839,1.4809129411670285
1.3931250000000002,1.480462349872883,1.481910954794074
1.39375,1.4801236721507822,1.4825762972121046
1.3943750000000001,1.4794463167065806,1.4832416396301351
1.395,1.4787689612623791,1.4842396532571809
1.3956250000000001,1.4784302835402783,1.4845723244661961
1.39625,1.4780916058181774,1.4849049956752114
1.396875,1.4784302835402783,1.4849049956752114
1.3975000000000002,1.4784302835402783,1.4845723244661961
1.398125,1.4787689612623791,1.4842396532571809
1.3987500000000002,1.4794463167065806,1.4839069820481656
1.399375,1.4801236721507822,1.4832416396301351
1.4000000000000001,1.4811397053170847,1.4822436260030893
1.400625,1.4818170607612864,1.4815782835850588
1.40125,1.482494416205488,1.4805802699580133
1.401875,1.4828330939275889,1.4795822563309675
1.4025,1.4831717716496897,1.4785842427039217
1.4031250000000002,1.4831717716496897,1.477586229076876
1.40375,1.4838491270938914,1.4769208866588455
1.4043750000000002,1.4841878048159922,1.4759228730318
1.405,1.4848651602601939,1.4752575306137694
1.4056250000000001,1.4848651602601939,1.4749248594047542
1.40625,1.4848651602601939,1.474592188195739
1.406875,1.4848651602601939,1.474592188195739
1.4075000000000002,1.484526482538093,1.474592188195739
1.408125,1.4841878048159922,1.4752575306137694
1.4087500000000002,1.4838491270938914,1.4755902018227847
1.409375,1.4835104493717906,1.476255544240815
1.4100000000000001,1.4831717716496897,1.4772535578678607
1.410625,1.482494416205488,1.4779189002858912
1.4112500000000001,1.4818170607612864,1.478916913912937
1.411875,1.4814783830391856,1.4799149275399828
1.4125,1.4808010275949839,1.4805802699580133
1.4131250000000002,1.4801236721507822,1.4815782835850588
1.41375,1.4797849944286814,1.4825762972121046
1.4143750000000002,1.47910763898448,1.4832416396301351
1.415,1.4787689612623791,1.4842396532571809
1.4156250000000001,1.4784302835402783,1.4845723244661961
1.41625,1.4784302835402783,1.4849049956752114
1.416875,1.4784302835402783,1.4849049956752114
1.4175,1.4784302835402783,1.4849049956752114
1.418125,1.4787689612623791,1.4845723244661961
1.4187500000000002,1.47910763898448,1.4842396532571809
1.419375,1.4797849944286814,1.4832416396301351
1.4200000000000002,1.480462349872883,1.4825762972121046
1.420625,1.4811397053170847,1.4815782835850588
1.4212500000000001,1.4821557384833872,1.4809129411670285
1.421875,1.4828330939275889,1.4799149275399828
1.4225,1.4838491270938914,1.478916913912937
1.4231250000000002,1.4841878048159922,1.4779189002858912
1.42375,1.4848651602601939,1.4769208866588455
1.4243750000000002,1.4852038379822947,1.476255544240815
1.425,1.4852038379822947,1.4755902018227847
1.4256250000000001,1.4852038379822947,1.4752575306137694
1.42625,1.4852038379822947,1.474592188195739
1.4268750000000001,1.4852038379822947,1.474592188195739
1.4275,1.4848651602601939,1.4749248594047542
1.428125,1.484526482538093,1.4749248594047542
1.4287500000000002,1.4841878048159922,1.4755902018227847
1.429375,1.4838491270938914,1.476255544240815
1.4300000000000002,1.4835104493717906,1.4769208866588455
1.430625,1.4828330939275889,1.477586229076876
1.4312500000000001,1.482494416205488,1.4785842427039217
1.431875,1.4818170607612864,1.4792495851219523
1.4325,1.4814783830391856,1.4805802699580133
1.433125,1.4811397053170847,1.4815782835850588
1.43375,1.480462349872883,1.4822436260030893
1.4343750000000002,1.4801236721507822,1.4832416396301351
1.435,1.4794463167065806,1.4839069820481656
1.4356250000000002,1.4794463167065806,1.4842396532571809
1.43625,1.47910763898448,1.4845723244661961
1.4368750000000001,1.47910763898448,1.4849049956752114
1.4375,1.47910763898448,1.4845723244661961
1.438125,1.47910763898448,1.4842396532571809
1.4387500000000002,1.4794463167065806,1.4839069820481656
1.439375,1.4797849944286814,1.4832416396301351
1.4400000000000002,1.480462349872883,1.4825762972121046
1.440625,1.4811397053170847,1.481910954794074
1.4412500000000001,1.4818170607612864,1.4809129411670285
1.441875,1.482494416205488,1.4799149275399828
1.4425000000000001,1.4831717716496897,1.478916913912937
1.443125,1.4838491270938914,1.4779189002858912
1.44375,1.4852038379822947,1.4769208866588455
1.4443750000000002,1.4862198711485972,1.476255544240815
1.445,1.4875745820370003,1.4752575306137694
1.4456250000000002,1.4889292929254037,1.4749248594047542
1.44625,1.4899453260917062,1.4742595169867236
1.4468750000000001,1.4909613592580087,1.4739268457777084
1.4475,1.4916387147022103,1.4739268457777084
1.448125,1.4919773924243112,1.4742595169867236
1.44875,1.492316070146412,1.474592188195739
1.449375,1.492316070146412,1.4752575306137694
1.4500000000000002,1.4916387147022103,1.4759228730318
1.450625,1.4909613592580087,1.4769208866588455
1.4512500000000002,1.490284003813807,1.4779189002858912
1.451875,1.4889292929254037,1.4792495851219523
1.4525000000000001,1.4872359043148997,1.480247598748998
1.453125,1.4852038379822947,1.4812456123760438
1.45375,1.4838491270938914,1.4822436260030893
1.4543750000000002,1.4828330939275889,1.4829089684211199
1.455,1.4818170607612864,1.4839069820481656
1.4556250000000002,1.4811397053170847,1.4842396532571809
1.45625,1.4801236721507822,1.4845723244661961
1.4568750000000001,1.4794463167065806,1.4849049956752114
1.4575,1.47910763898448,1.4845723244661961
1.4581250000000001,1.4787689612623791,1.4845723244661961
1.45875,1.4784302835402783,1.4842396532571809
1.459375,1.4784302835402783,1.4835743108391504
1.4600000000000002,1.4787689612623791,1.4829089684211199
1.460625,1.47910763898448,1.481910954794074
1.4612500000000002,1.4794463167065806,1.4812456123760438
1.461875,1.4797849944286814,1.480247598748998
1.4625000000000001,1.480462349872883,1.4792495851219523
1.463125,1.4811397053170847,1.4782515714949065
1.46375,1.4821557384833872,1.4772535578678607
1.464375,1.4831717716496897,1.4765882154498302
1.465,1.4841878048159922,1.4755902018227847
1.4656250000000002,1.4848651602601939,1.4752575306137694
1.46625,1.4852038379822947,1.474592188195739
1.4668750000000002,1.4855425157043955,1.474592188195739
1.4675,1.4858811934264964,1.474592188195739
1.4681250000000001,1.4862198711485972,1.4749248594047542
1.46875,1.486558548870698,1.4749248594047542
1.469375,1.4862198711485972,1.4759228730318
1.4700000000000002,1.4858811934264964,1.4765882154498302
1.470625,1.4855425157043955,1.477586229076876
1.4712500000000002,1.484526482538093,1.4785842427039217
1.471875,1.4838491270938914,1.4795822563309675
1.4725000000000001,1.4835104493717906,1.480247598748998
1.473125,1.4828330939275889,1.4812456123760438
1.4737500000000001,1.4828330939275889,1.481910954794074
1.474375,1.482494416205488,1.4825762972121046
1.475,1.4821557384833872,1.4832416396301351
1.4756250000000002,1.4821557384833872,1.4835743108391504
1.47625,1.4821557384833872,1.4835743108391504
1.4768750000000002,1.4821557384833872,1.4835743108391504
1.4775,1.482494416205488,1.4835743108391504
1.4781250000000001,1.4828330939275889,1.4832416396301351
1.47875,1.4831717716496897,1.4829089684211199
1.479375,1.4835104493717906,1.4822436260030893
1.48,1.4841878048159922,1.4815782835850588
1.480625,1.4848651602601939,1.4809129411670285
1.4812500000000002,1.4855425157043955,1.4799149275399828
1.481875,1.4862198711485972,1.4792495851219523
1.4825000000000002,1.486558548870698,1.4782515714949065
1.483125,1.4872359043148997,1.4772535578678607
1.4837500000000001,1.4875745820370003,1.476255544240815
1.484375,1.488251937481202,1.4755902018227847
1.485,1.4885906152033028,1.4749248594047542
1.4856250000000002,1.4889292929254037,1.4742595169867236
1.48625,1.4892679706475045,1.4739268457777084
1.4868750000000002,1.4892679706475045,1.4739268457777084
1.4875,1.4892679706475045,1.4739268457777084
1.4881250000000001,1.4892679706475045,1.4742595169867236
1.48875,1.4892679706475045,1.474592188195739
1.4893750000000001,1.4889292929254037,1.4752575306137694
1.49,1.4885906152033028,1.476255544240815
1.490625,1.4879132597591012,1.4769208866588455
1.4912500000000002,1.4875745820370003,1.4779189002858912
1.491875,1.4868972265927989,1.4785842427039217
1.4925000000000002,1.486558548870698,1.4795822563309675
1.493125,1.4862198711485972,1.4805802699580133
1.4937500000000001,1.4862198711485972,1.481910954794074
1.494375,1.4862198711485972,1.4829089684211199
1.495,1.4862198711485972,1.4842396532571809
1.495625,1.4862198711485972,1.4852376668842266
1.49625,1.4868972265927989,1.4865683517202877
1.4968750000000002,1.4872359043148997,1.4875663653473332
1.4975,1.4879132597591012,1.4882317077653637
1.4981250000000002,1.488251937481202,1.4888970501833942
1.49875,1.4889292929254037,1.4892297213924095
1.4993750000000001,1.4899453260917062,1.4895623926014248
1.5,1.4906226815359078,1.48989506381044
1.500625,1.4913000369801095,1.48989506381044
1.5012500000000002,1.4916387147022103,1.48989506381044
1.501875,1.4916387147022103,1.4902277350194553
1.5025000000000002,1.4919773924243112,1.4902277350194553
1.503125,1.4933321033127145,1.48989506381044
1.5037500000000001,1.4950254919232187,1.4892297213924095
1.504375,1.4967188805337226,1.4888970501833942
1.5050000000000001,1.4984122691442268,1.4882317077653637
1.505625,1.4994283023105293,1.4882317077653637
1.50625,1.5004443354768318,1.4878990365563485
1.5068750000000002,1.5011216909210334,1.4882317077653637
1.5075,1.5011216909210334,1.4888970501833942
1.5081250000000002,1.5011216909210334,1.4895623926014248
1.50875,1.5004443354768318,1.4902277350194553
1.5093750000000001,1.500105657754731,1.4915584198555163
1.51,1.4990896245884284,1.492889104691577
1.510625,1.4973962359779243,1.4942197895276381
1.51125,1.49570284736742,1.4952178031546839
1.511875,1.4940094587569162,1.4962158167817297
1.5125000000000002,1.4926547478685128,1.4972138304087754
1.513125,1.4916387147022103,1.4978791728268057
1.5137500000000002,1.4913000369801095,1.4985445152448362
1.514375,1.490284003813807,1.4992098576628667
1.5150000000000001,1.4899453260917062,1.4998752000808973
1.515625,1.4896066483696053,1.5005405424989278
1.51625,1.4896066483696053,1.5015385561259735
1.5168750000000002,1.4899453260917062,1.502536569753019
1.5175,1.4906226815359078,1.5035345833800648
1.5181250000000002,1.4916387147022103,1.5045325970071106
1.51875,1.492316070146412,1.5055306106341564
1.5193750000000001,1.4929934255906137,1.5058632818431716
1.52,1.4940094587569162,1.506195953052187
1.5206250000000001,1.4950254919232187,1.5065286242612022
1.52125,1.4963802028116218,1.5068612954702174
1.521875,1.497734913700025,1.5068612954702174
1.5225000000000002,1.4987509468663276,1.5065286242612022
1.523125,1.4994283023105293,1.506195953052187
1.5237500000000002,1.500105657754731,1.5055306106341564
1.524375,1.5011216909210334,1.5055306106341564
1.5250000000000001,1.502137724087336,1.5051979394251411
1.525625,1.5031537572536384,1.5055306106341564
1.52625,1.50383111269784,1.5055306106341564
1.526875,1.5041697904199407,1.5058632818431716
1.5275,1.5045084681420415,1.506195953052187
1.5281250000000002,1.5048471458641424,1.5071939666792327
1.52875,1.5051858235862432,1.5085246515152935
1.5293750000000002,1.505524501308344,1.5111860211874155
1.53,1.5058631790304449,1.5138473908595373
1.5306250000000001,1.5062018567525457,1.5168414317406747
1.53125,1.5062018567525457,1.520168143830827
1.531875,1.5062018567525457,1.5241601983390098
1.5325000000000002,1.5062018567525457,1.5274869104291624
1.533125,1.5058631790304449,1.5308136225193147
1.5337500000000002,1.5051858235862432,1.5334749921914368
1.534375,1.5048471458641424,1.5351383482365129
1.5350000000000001,1.5051858235862432,1.5368017042815891
1.535625,1.505524501308344,1.5381323891176502
1.5362500000000001,1.5058631790304449,1.539463073953711
1.536875,1.5058631790304449,1.540793758789772
1.5375,1.505524501308344,1.542124443625833
1.5381250000000002,1.5041697904199407,1.5431224572528788
1.53875,1.5031537572536384,1.5447858132979548
1.5393750000000002,1.5031537572536384,1.5467818405520464
1.54,1.5031537572536384,1.5484451965971227
1.5406250000000001,1.5024764018094368,1.5501085526421987
1.54125,1.5014603686431343,1.551771908687275
1.541875,1.500105657754731,1.553102593523336
1.5425,1.4987509468663276,1.554433278359397
1.543125,1.497734913700025,1.5547659495684123
1.5437500000000002,1.498073591422126,1.5554312919864426
1.544375,1.4994283023105293,1.5570946480315189
1.5450000000000002,1.5011216909210334,1.5594233464946257
1.545625,1.5028150795315376,1.5620847161667475
1.5462500000000001,1.5045084681420415,1.564080743420839
1.546875,1.5062018567525457,1.565744099465915
1.5475,1.507556567640949,1.5677401267200066
1.5481250000000002,1.5082339230851507,1.5687381403470524
1.54875,1.5085726008072515,1.569403482765083
1.5493750000000002,1.5078952453630499,1.5700688251831134
1.55,1.5068792121967474,1.5704014963921287
1.5506250000000001,1.505524501308344,1.5704014963921287
1.55125,1.5041697904199407,1.5700688251831134
1.5518750000000001,1.5028150795315376,1.5687381403470524
1.5525,1.5014603686431343,1.5660767706749303
1.553125,1.5011216909210334,1.562750058584778
1.5537500000000002,1.501799046365235,1.559756017703641
1.554375,1.5041697904199407,1.556096634404473
1.5550000000000002,1.5068792121967474,1.5527699223143208
1.555625,1.5109433448619574,1.5484451965971227
1.5562500000000001,1.5146687998050663,1.5447858132979548
1.556875,1.5187329324702763,1.5411264299987872
1.5575,1.5238130983017886,1.5381323891176502
1.558125,1.5282159086890994,1.5351383482365129
1.55875,1.5322800413543092,1.532476978564391
1.5593750000000002,1.534650785409015,1.5301482801012842
1.56,1.5363441740195192,1.528152252847193
1.5606250000000002,1.5376988849079223,1.5261562255931014
1.56125,1.5390535957963256,1.5241601983390098
1.5618750000000001,1.5387149180742248,1.5221641710849185
1.5625,1.5373602071858214,1.5198354726218117
1.563125,1.5360054962974183,1.5178394453677204
1.5637500000000002,1.5353281408532167,1.5161760893226441
1.564375,1.5353281408532167,1.5151780756955984
1.5650000000000002,1.5360054962974183,1.5138473908595373
1.565625,1.5366828517416198,1.5128493772324918
1.5662500000000001,1.5373602071858214,1.5121840348144613
1.566875,1.5366828517416198,1.5121840348144613
1.5675000000000001,1.5363441740195192,1.5131820484415068
1.568125,1.5356668185753175,1.5151780756955984
1.56875,1.5339734299648133,1.5175067741587052
1.5693750000000002,1.5322800413543092,1.520168143830827
1.57,1.5309253304659058,1.5224968422939338
1.5706250000000002,1.5299092972996033,1.5251582119660556
1.57125,1.5278772309669986,1.5278195816381777
1.5718750000000001,1.5255064869122927,1.5301482801012842
1.5725,1.5224583874133852,1.5321443073553758
1.573125,1.519410287914478,1.5344730058184823
1.57375,1.517378221581873,1.5364690330725739
1.574375,1.5170395438597721,1.5374670466996196
1.5750000000000002,1.5170395438597721,1.5371343754906044
1.575625,1.5187329324702763,1.5364690330725739
1.5762500000000002,1.520764998802881,1.5368017042815891
1.576875,1.522797065135486,1.5368017042815891
1.5775000000000001,1.524829131468091,1.5371343754906044
1.578125,1.5261838423564944,1.5371343754906044
1.57875,1.5275385532448977,1.5374670466996196
1.5793750000000002,1.5285545864112002,1.5368017042815891
1.58,1.5285545864112002,1.5364690330725739
1.5806250000000002,1.5278772309669986,1.5358036906545434
1.58125,1.5255064869122927,1.534140334609467
1.5818750000000001,1.5244904537459902,1.532476978564391
1.5825,1.5238130983017886,1.5308136225193147
1.5831250000000001,1.5234744205796877,1.5288175952652234
1.58375,1.5234744205796877,1.526821568011132
1.584375,1.523135742857587,1.5248255407570404
1.5850000000000002,1.522797065135486,1.5224968422939338
1.585625,1.5224583874133852,1.5205008150398422
1.5862500000000002,1.5221197096912844,1.5185047877857507
1.586875,1.5221197096912844,1.51717410294969
1.5875000000000001,1.5224583874133852,1.5165087605316594
1.588125,1.5221197096912844,1.5155107469046136
1.58875,1.5214423542470827,1.5138473908595373
1.589375,1.521103676524982,1.5121840348144613
1.59,1.5204263210807802,1.5108533499784003
1.5906250000000002,1.5200876433586796,1.510520678769385
1.59125,1.519410287914478,1.510520678769385
1.5918750000000002,1.5183942547481755,1.5108533499784003
1.5925,1.5177168993039738,1.5111860211874155
1.5931250000000001,1.517378221581873,1.5121840348144613
1.59375,1.5167008661376713,1.513514719650522
1.594375,1.5160235106934696,1.5141800620685526
1.5950000000000002,1.5167008661376713,1.5148454044865831
1.595625,1.517378221581873,1.5151780756955984
1.5962500000000002,1.5183942547481755,1.5151780756955984
1.596875,1.519410287914478,1.5148454044865831
1.5975000000000001,1.5197489656365788,1.513514719650522
1.598125,1.5187329324702763,1.5111860211874155
1.5987500000000001,1.5170395438597721,1.509189993933324
1.599375,1.5170395438597721,1.5071939666792327
1.6,1.5187329324702763,1.5058632818431716
1.6006250000000002,1.5200876433586796,1.5048652682161259
1.60125,1.5217810319691836,1.5041999257980954
1.6018750000000002,1.523135742857587,1.5028692409620343
1.6025,1.5238130983017886,1.500873213707943
1.6031250000000001,1.5238130983017886,1.4985445152448362
1.60375,1.5238130983017886,1.4975465016177905
1.604375,1.525167809190192,1.4975465016177905
1.605,1.5265225200785952,1.4978791728268057
1.605625,1.526861197800696,1.4988771864538515
1.6062500000000002,1.5275385532448977,1.4998752000808973
1.606875,1.5275385532448977,1.5002078712899125
1.6075000000000002,1.5261838423564944,1.500873213707943
1.608125,1.5244904537459902,1.5018712273349888
1.6087500000000001,1.522797065135486,1.502536569753019
1.609375,1.521103676524982,1.5032019121710496
1.61,1.5200876433586796,1.5041999257980954
1.6106250000000002,1.5197489656365788,1.5051979394251411
1.61125,1.5190716101923771,1.506195953052187
1.6118750000000002,1.5180555770260746,1.507859309097263
1.6125,1.5170395438597721,1.5098553363513545
1.6131250000000001,1.5163621884155705,1.5111860211874155
1.61375,1.5160235106934696,1.5121840348144613
1.6143750000000001,1.515346155249268,1.5125167060234765
1.615,1.5150074775271671,1.5125167060234765
1.615625,1.5143301220829655,1.5128493772324918
1.6162500000000002,1.5139914443608646,1.513514719650522
1.616875,1.5136527666387638,1.5138473908595373
1.6175000000000002,1.513314088916663,1.5128493772324918
1.618125,1.5136527666387638,1.5108533499784003
1.6187500000000001,1.5136527666387638,1.5085246515152935
1.619375,1.5126367334724613,1.5055306106341564
1.62,1.5122980557503605,1.502536569753019
1.620625,1.5129754111945621,1.499542528871882
1.62125,1.5139914443608646,1.4962158167817297
1.6218750000000002,1.5143301220829655,1.4925564334825618
1.6225,1.515346155249268,1.4888970501833942
1.6231250000000002,1.5156848329713688,1.4849049956752114
1.62375,1.5160235106934696,1.4809129411670285
1.6243750000000001,1.5170395438597721,1.4782515714949065
1.625,1.517378221581873,1.4759228730318
1.625625,1.5167008661376713,1.4742595169867236
1.6262500000000002,1.5163621884155705,1.4725961609416474
1.626875,1.5163621884155705,1.470932804896571
1.6275000000000002,1.5160235106934696,1.4696021200605103
1.628125,1.5163621884155705,1.469269448851495
1.6287500000000001,1.517378221581873,1.4689367776424798
1.629375,1.5183942547481755,1.4689367776424798
1.6300000000000001,1.5183942547481755,1.4686041064334645
1.630625,1.5180555770260746,1.4689367776424798
1.63125,1.5177168993039738,1.4689367776424798
1.6318750000000002,1.5180555770260746,1.4682714352244493
1.6325,1.5180555770260746,1.4676060928064187
1.6331250000000002,1.5177168993039738,1.4672734215974035
1.63375,1.5170395438597721,1.466608079179373
1.6343750000000001,1.5160235106934696,1.4662754079703577
1.635,1.5156848329713688,1.4659427367613425
1.635625,1.515346155249268,1.4656100655523274
1.63625,1.513314088916663,1.4656100655523274
1.636875,1.5126367334724613,1.4656100655523274
1.6375000000000002,1.5122980557503605,1.4659427367613425
1.638125,1.513314088916663,1.466608079179373
1.6387500000000002,1.5139914443608646,1.4669407503883882
1.639375,1.5143301220829655,1.4662754079703577
1.6400000000000001,1.5150074775271671,1.464944723134297
1.640625,1.5150074775271671,1.4632813670892206
1.64125,1.5156848329713688,1.461285339835129
1.6418750000000002,1.5167008661376713,1.4599546549990683
1.6425,1.5183942547481755,1.4586239701630073
1.6431250000000002,1.5190716101923771,1.4572932853269462
1.64375,1.5200876433586796,1.4559626004908852
1.6443750000000001,1.520764998802881,1.4546319156548244
1.645,1.5217810319691836,1.4536339020277786
1.6456250000000001,1.5224583874133852,1.4526358884007329
1.64625,1.522797065135486,1.451637874773687
1.646875,1.522797065135486,1.4513052035646719
1.6475000000000002,1.522797065135486,1.4509725323556566
1.648125,1.5224583874133852,1.4509725323556566
1.6487500000000002,1.5217810319691836,1.4509725323556566
1.649375,1.5214423542470827,1.4513052035646719
1.6500000000000001,1.520764998802881,1.451637874773687
1.650625,1.5200876433586796,1.4523032171917176
1.65125,1.5190716101923771,1.4529685596097481
1.651875,1.517378221581873,1.4533012308187634
1.6525,1.5160235106934696,1.453966573236794
1.6531250000000002,1.5146687998050663,1.4542992444458092
1.65375,1.5126367334724613,1.4549645868638397
1.6543750000000002,1.5112820225840582,1.45562992928187
1.655,1.5106046671398565,1.4562952716999005
1.6556250000000001,1.5106046671398565,1.4562952716999005
1.65625,1.5109433448619574,1.4562952716999005
1.656875,1.5112820225840582,1.4559626004908852
1.6575000000000002,1.511620700306159,1.45562992928187
1.658125,1.5122980557503605,1.45562992928187
1.6587500000000002,1.5136527666387638,1.4552972580728547
1.659375,1.515346155249268,1.4546319156548244
1.6600000000000001,1.5177168993039738,1.453966573236794
1.660625,1.5197489656365788,1.4533012308187634
1.6612500000000001,1.521103676524982,1.4523032171917176
1.661875,1.523135742857587,1.4509725323556566
1.6625,1.5255064869122927,1.4496418475195958
1.6631250000000002,1.5278772309669986,1.44864383389255
1.66375,1.5299092972996033,1.447313149056489
1.6643750000000002,1.5319413636322083,1.4463151354294432
1.665,1.5339734299648133,1.445982464220428
1.6656250000000001,1.534650785409015,1.4456497930114127
1.66625,1.534650785409015,1.4449844505933822
1.666875,1.5349894631311158,1.4446517793843672
1.6675,1.5356668185753175,1.4446517793843672
1.668125,1.5363441740195192,1.4449844505933822
1.6687500000000002,1.5366828517416198,1.4449844505933822
1.669375,1.5356668185753175,1.4456497930114127
1.6700000000000002,1.5343121076869142,1.4463151354294432
1.670625,1.5332960745206117,1.4469804778474737
1.6712500000000001,1.53261871907641,1.4479784914745195
1.671875,1.53261871907641,1.4493091763105805
1.6725,1.5329573967985108,1.4499745187286108
1.6731250000000002,1.5329573967985108,1.4509725323556566
1.67375,1.5329573967985108,1.451637874773687
1.6743750000000002,1.5329573967985108,1.4526358884007329
1.675,1.5339734299648133,1.4533012308187634
1.6756250000000001,1.5356668185753175,1.4536339020277786
1.67625,1.5370215294637206,1.4542992444458092
1.6768750000000001,1.538376240352124,1.4542992444458092
1.6775,1.5397309512405273,1.4542992444458092
1.678125,1.5414243398510314,1.4542992444458092
1.6787500000000002,1.5431177284615356,1.4542992444458092
1.679375,1.5437950839057373,1.453966573236794
1.6800000000000002,1.544133761627838,1.4533012308187634
1.680625,1.5451497947941404,1.4526358884007329
1.6812500000000001,1.5461658279604429,1.4519705459827024
1.681875,1.5475205388488462,1.451637874773687
1.6825,1.5485365720151487,1.4506398611466413
1.683125,1.5488752497372495,1.450307189937626
1.68375,1.5488752497372495,1.4496418475195958
1.6843750000000002,1.5481978942930479,1.4489765051015653
1.685,1.5481978942930479,1.4483111626835348
1.6856250000000002,1.5488752497372495,1.4476458202655043
1.68625,1.5495526051814512,1.447313149056489
1.6868750000000001,1.5505686383477537,1.4476458202655043
1.6875,1.5512459937919554,1.4479784914745195
1.688125,1.5515846715140562,1.44864383389255
1.6887500000000002,1.5512459937919554,1.4493091763105805
1.689375,1.5505686383477537,1.450307189937626
1.6900000000000002,1.5512459937919554,1.451637874773687
1.690625,1.5515846715140562,1.4526358884007329
1.6912500000000001,1.5509073160698545,1.4536339020277786
1.691875,1.5509073160698545,1.4549645868638397
1.6925000000000001,1.5512459937919554,1.4559626004908852
1.693125,1.551923349236157,1.456960614117931
1.69375,1.5526007046803587,1.4576259565359615
1.6943750000000002,1.553616737846661,1.4579586277449768
1.695,1.5546327710129635,1.458291298953992
1.6956250000000002,1.5566648373455685,1.4579586277449768
1.69625,1.5590355814002743,1.458291298953992
1.6968750000000001,1.5610676477328793,1.4579586277449768
1.6975,1.5624223586212824,1.4579586277449768
1.698125,1.563099714065484,1.4576259565359615
1.69875,1.565131780398089,1.456960614117931
1.699375,1.567502524452795,1.4562952716999005
1.7000000000000002,1.5702119462296014,1.4559626004908852
1.700625,1.5732600457285089,1.4552972580728547
1.7012500000000002,1.5766468229495172,1.4542992444458092
1.701875,1.5796949224484245,1.4536339020277786
1.7025000000000001,1.5820656665031303,1.4526358884007329
1.703125,1.5844364105578361,1.451637874773687
1.70375,1.586468476890441,1.450307189937626
1.7043750000000002,1.5891778986672476,1.44864383389255
1.705,1.5915486427219534,1.4469804778474737
1.7056250000000002,1.5935807090545584,1.4456497930114127
1.70625,1.592225998166155,1.444319108175352
1.7068750000000001,1.590532609555651,1.4433210945483061
1.7075,1.5895165763893484,1.4423230809212604
1.7081250000000001,1.588161865500945,1.4416577385032299
1.70875,1.586468476890441,1.440659724876184
1.709375,1.5837590551136345,1.4386636976220928
1.7100000000000002,1.5796949224484245,1.436334999158986
1.710625,1.5759694675053155,1.4343389719048945
1.7112500000000002,1.5725826902843072,1.4330082870688337
1.711875,1.569195913063299,1.4323429446508031
1.7125000000000001,1.5688572353411983,1.4323429446508031
1.713125,1.569195913063299,1.4330082870688337
1.71375,1.5712279793959039,1.4340063006958794
1.714375,1.574953434339013,1.4356696567409555
1.715,1.5780015338379205,1.4366676703680012
1.7156250000000002,1.5800336001705253,1.4373330127860318
1.71625,1.5810496333368278,1.437665683995047
1.7168750000000002,1.582743021947332,1.437665683995047
1.7175,1.5851137660020378,1.437665683995047
1.7181250000000001,1.5878231877788442,1.4383310264130775
1.71875,1.59019393183355,1.4399943824581536
1.719375,1.5908712872777517,1.4416577385032299
1.7200000000000002,1.5908712872777517,1.442988423339291
1.720625,1.5891778986672476,1.442988423339291
1.7212500000000002,1.5868071546125417,1.4423230809212604
1.721875,1.582743021947332,1.440659724876184
1.7225000000000001,1.5766468229495172,1.438996368831108
1.723125,1.5725826902843072,1.4373330127860318
1.7237500000000001,1.570889301673803,1.4356696567409555
1.724375,1.5695345907853997,1.4346716431139097
1.725,1.5678412021748958,1.4336736294868642
1.7256250000000002,1.567163846730694,1.4336736294868642
1.72625,1.5664864912864924,1.433340958277849
1.7268750000000002,1.5661478135643916,1.4330082870688337
1.7275,1.5668251690085933,1.4330082870688337
1.7281250000000001,1.567502524452795,1.433340958277849
1.72875,1.5678412021748958,1.4340063006958794
1.729375,1.5685185576190974,1.435004314322925
1.73,1.5702119462296014,1.4370003415770165
1.730625,1.5715666571180047,1.438996368831108
1.7312500000000002,1.570889301673803,1.4409923960851994
1.731875,1.5681798798969966,1.4433210945483061
1.7325000000000002,1.565131780398089,1.445982464220428
1.733125,1.5617450031770808,1.4479784914745195
1.7337500000000001,1.5570035150676693,1.4499745187286108
1.734375,1.5549714487350643,1.451637874773687
1.735,1.555648804179266,1.4529685596097481
1.7356250000000002,1.555648804179266,1.4536339020277786
1.73625,1.557680870511871,1.4546319156548244
1.7368750000000002,1.5607289700107785,1.4552972580728547
1.7375,1.563438391787585,1.45562992928187
1.7381250000000001,1.5664864912864924,1.4559626004908852
1.73875,1.5698732685075005,1.4559626004908852
1.7393750000000001,1.5735987234506097,1.4552972580728547
1.74,1.576985500671618,1.4542992444458092
1.740625,1.5793562447263236,1.4536339020277786
1.7412500000000002,1.5824043442252311,1.4529685596097481
1.741875,1.584775088279937,1.4523032171917176
1.7425000000000002,1.5854524437241386,1.4513052035646719
1.743125,1.5851137660020378,1.450307189937626
1.7437500000000001,1.5830816996694328,1.4493091763105805
1.744375,1.5796949224484245,1.4483111626835348
1.745,1.5763081452274164,1.4476458202655043
1.745625,1.5742760788948114,1.4469804778474737
1.74625,1.5719053348401055,1.4463151354294432
1.7468750000000002,1.569195913063299,1.445982464220428
1.7475,1.5661478135643916,1.4456497930114127
1.7481250000000002,1.5627610363433833,1.4453171218023975
1.74875,1.559712936844476,1.4449844505933822
1.7493750000000001,1.5570035150676693,1.4456497930114127
1.75,1.5532780601245602,1.4463151354294432
1.750625,1.549891282903552,1.447313149056489
1.7512500000000002,1.5468431834046446,1.4483111626835348
1.751875,1.5448111170720398,1.4493091763105805
1.7525000000000002,1.5407469844068298,1.450307189937626
1.753125,1.5360054962974183,1.4513052035646719
1.7537500000000001,1.53261871907641,1.4523032171917176
1.754375,1.5302479750217042,1.4533012308187634
1.7550000000000001,1.5282159086890994,1.453966573236794
1.755625,1.5258451646343936,1.4546319156548244
1.75625,1.5255064869122927,1.4549645868638397
1.7568750000000002,1.5255064869122927,1.4552972580728547
1.7575,1.5261838423564944,1.4549645868638397
1.7581250000000002,1.5265225200785952,1.4552972580728547
1.75875,1.527199875522797,1.4549645868638397
1.7593750000000001,1.5278772309669986,1.4542992444458092
1.76,1.5282159086890994,1.453966573236794
1.760625,1.5288932641333008,1.4529685596097481
1.76125,1.5288932641333008,1.4523032171917176
1.761875,1.5278772309669986,1.451637874773687
1.7625000000000002,1.5265225200785952,1.4506398611466413
1.763125,1.5258451646343936,1.4499745187286108
1.7637500000000002,1.525167809190192,1.4496418475195958
1.764375,1.5238130983017886,1.4489765051015653
1.7650000000000001,1.523135742857587,1.4483111626835348
1.765625,1.5221197096912844,1.4479784914745195
1.76625,1.5221197096912844,1.4476458202655043
1.7668750000000002,1.523135742857587,1.4479784914745195
1.7675,1.525167809190192,1.4479784914745195
1.7681250000000002,1.527199875522797,1.44864383389255
1.76875,1.5292319418554017,1.4493091763105805
1.7693750000000001,1.530586652743805,1.4499745187286108
1.77,1.5312640081880067,1.4509725323556566
1.7706250000000001,1.5312640081880067,1.4523032171917176
1.77125,1.5316026859101075,1.4533012308187634
1.771875,1.5312640081880067,1.4542992444458092
1.7725000000000002,1.5312640081880067,1.45562992928187
1.773125,1.5309253304659058,1.4566279429089157
1.7737500000000002,1.5295706195775025,1.4579586277449768
1.774375,1.5275385532448977,1.4589566413720225
1.7750000000000001,1.5244904537459902,1.4599546549990683
1.775625,1.5217810319691836,1.4606199974170986
1.77625,1.519410287914478,1.4609526686261138
1.776875,1.517378221581873,1.461285339835129
1.7775,1.5163621884155705,1.461285339835129
1.7781250000000002,1.5167008661376713,1.461285339835129
1.77875,1.5177168993039738,1.461285339835129
1.7793750000000002,1.5190716101923771,1.4609526686261138
1.78,1.5204263210807802,1.4609526686261138
1.7806250000000001,1.5224583874133852,1.4602873262080835
1.78125,1.524829131468091,1.4599546549990683
1.781875,1.527199875522797,1.4599546549990683
1.7825000000000002,1.5282159086890994,1.459621983790053
1.783125,1.527199875522797,1.4589566413720225
1.7837500000000002,1.5261838423564944,1.4586239701630073
1.784375,1.5241517760238894,1.458291298953992
1.7850000000000001,1.5217810319691836,1.4579586277449768
1.785625,1.5187329324702763,1.4576259565359615
1.7862500000000001,1.5150074775271671,1.4576259565359615
1.786875,1.5122980557503605,1.4576259565359615
1.7875,1.5106046671398565,1.4579586277449768
1.7881250000000002,1.5089112785293524,1.458291298953992
1.78875,1.5068792121967474,1.4589566413720225
1.7893750000000002,1.5048471458641424,1.459621983790053
1.79,1.5031537572536384,1.4606199974170986
1.7906250000000001,1.501799046365235,1.4616180110441443
1.79125,1.5007830131989326,1.4626160246711901
1.791875,1.500105657754731,1.4636140382982359
1.7925,1.4994283023105293,1.464944723134297
1.793125,1.4994283023105293,1.4659427367613425
1.7937500000000002,1.4994283023105293,1.4672734215974035
1.794375,1.4987509468663276,1.4682714352244493
1.7950000000000002,1.497734913700025,1.469269448851495
1.795625,1.4970575582558234,1.4699347912695255
1.7962500000000001,1.496041525089521,1.470600133687556
1.796875,1.4953641696453195,1.4712654761055863
1.7975,1.4946868142011178,1.4712654761055863
1.7981250000000002,1.494348136479017,1.4715981473146016
1.79875,1.4940094587569162,1.4712654761055863
1.7993750000000002,1.4936707810348153,1.4712654761055863
1.8,1.4933321033127145,1.470932804896571
1.8006250000000001,1.4933321033127145,1.470600133687556
1.80125,1.4929934255906137,1.4699347912695255
1.8018750000000001,1.492316070146412,1.469269448851495
1.8025,1.4919773924243112,1.4686041064334645
1.803125,1.492316070146412,1.467938764015434
1.8037500000000002,1.4926547478685128,1.4676060928064187
1.804375,1.492316070146412,1.4669407503883882
1.8050000000000002,1.4919773924243112,1.466608079179373
1.805625,1.4913000369801095,1.4662754079703577
1.8062500000000001,1.4913000369801095,1.4662754079703577
1.806875,1.4916387147022103,1.4662754079703577
1.8075,1.4916387147022103,1.466608079179373
1.808125,1.4916387147022103,1.4672734215974035
1.80875,1.4919773924243112,1.467938764015434
1.8093750000000002,1.492316070146412,1.4686041064334645
1.81,1.4926547478685128,1.4696021200605103
1.8106250000000002,1.492316070146412,1.470600133687556
1.81125,1.4919773924243112,1.4715981473146016
1.8118750000000001,1.4913000369801095,1.4729288321506626
1.8125,1.4909613592580087,1.4742595169867236
1.813125,1.4906226815359078,1.4752575306137694
1.8137500000000002,1.490284003813807,1.4765882154498302
1.814375,1.4899453260917062,1.477586229076876
1.8150000000000002,1.4899453260917062,1.4785842427039217
1.815625,1.4899453260917062,1.4792495851219523
1.8162500000000001,1.4892679706475045,1.4795822563309675
1.816875,1.488251937481202,1.4799149275399828
1.8175000000000001,1.4858811934264964,1.4795822563309675
1.818125,1.4838491270938914,1.4795822563309675
1.81875,1.4831717716496897,1.4792495851219523
1.8193750000000002,1.4831717716496897,1.478916913912937
1.82,1.4831717716496897,1.4779189002858912
1.8206250000000002,1.4831717716496897,1.4772535578678607
1.82125,1.4831717716496897,1.4765882154498302
1.8218750000000001,1.4831717716496897,1.4755902018227847
1.8225,1.4828330939275889,1.474592188195739
1.823125,1.4828330939275889,1.4735941745686931
1.82375,1.4831717716496897,1.4729288321506626
1.824375,1.4831717716496897,1.472263489732632
1.8250000000000002,1.4835104493717906,1.4715981473146016
1.825625,1.4835104493717906,1.4712654761055863
1.8262500000000002,1.4835104493717906,1.470932804896571
1.826875,1.4835104493717906,1.470932804896571
1.8275000000000001,1.4828330939275889,1.470932804896571
1.828125,1.4821557384833872,1.4712654761055863
1.82875,1.4814783830391856,1.4715981473146016
1.8293750000000002,1.480462349872883,1.472263489732632
1.83,1.4794463167065806,1.4729288321506626
1.8306250000000002,1.4787689612623791,1.4739268457777084
1.83125,1.4780916058181774,1.474592188195739
1.8318750000000001,1.4774142503739758,1.4755902018227847
1.8325,1.477075572651875,1.4765882154498302
1.8331250000000001,1.4774142503739758,1.477586229076876
1.83375,1.4780916058181774,1.4782515714949065
1.834375,1.4784302835402783,1.4792495851219523
1.8350000000000002,1.4784302835402783,1.4799149275399828
1.835625,1.4780916058181774,1.4805802699580133
1.8362500000000002,1.4774142503739758,1.4809129411670285
1.836875,1.4767368949297741,1.4812456123760438
1.8375000000000001,1.4763982172076733,1.4812456123760438
1.838125,1.4757208617634716,1.4812456123760438
1.83875,1.47504350631927,1.4809129411670285
1.839375,1.4743661508750683,1.4805802699580133
1.84,1.4743661508750683,1.4799149275399828
1.8406250000000002,1.4747048285971691,1.478916913912937
1.84125,1.4747048285971691,1.4782515714949065
1.8418750000000002,1.4743661508750683,1.4772535578678607
1.8425,1.4736887954308666,1.476255544240815
1.8431250000000001,1.4733501177087658,1.4755902018227847
1.84375,1.4733501177087658,1.474592188195739
1.844375,1.4723340845424633,1.4739268457777084
1.8450000000000002,1.4719954068203625,1.4732615033596779
1.845625,1.47097937365406,1.4725961609416474
1.8462500000000002,1.4706406959319593,1.472263489732632
1.846875,1.4706406959319593,1.472263489732632
1.8475000000000001,1.4706406959319593,1.4725961609416474
1.848125,1.47097937365406,1.4729288321506626
1.8487500000000001,1.4713180513761608,1.4732615033596779
1.849375,1.4719954068203625,1.4739268457777084
1.85,1.4723340845424633,1.4749248594047542
1.8506250000000002,1.4726727622645641,1.4755902018227847
1.85125,1.473011439986665,1.4769208866588455
1.8518750000000002,1.4719954068203625,1.477586229076876
1.8525,1.47097937365406,1.4785842427039217
1.8531250000000001,1.4689473073214552,1.4795822563309675
1.85375,1.4669152409888502,1.4805802699580133
1.854375,1.4648831746562452,1.4812456123760438
1.855,1.4628511083236404,1.4822436260030893
1.855625,1.4611577197131362,1.4825762972121046
1.8562500000000002,1.459464331102632,1.4829089684211199
1.856875,1.4584482979363296,1.4832416396301351
1.8575000000000002,1.457432264770027,1.4829089684211199
1.858125,1.4567549093258254,1.4829089684211199
1.8587500000000001,1.4560775538816237,1.4822436260030893
1.859375,1.455400198437422,1.4815782835850588
1.86,1.4547228429932204,1.4809129411670285
1.8606250000000002,1.4547228429932204,1.480247598748998
1.86125,1.4550615207153212,1.4792495851219523
1.8618750000000002,1.455400198437422,1.4782515714949065
1.8625,1.455738876159523,1.4772535578678607
1.8631250000000001,1.4560775538816237,1.476255544240815
1.86375,1.4560775538816237,1.4752575306137694
1.8643750000000001,1.4564162316037246,1.474592188195739
1.865,1.4564162316037246,1.4739268457777084
1.865625,1.4560775538816237,1.4732615033596779
1.8662500000000002,1.4550615207153212,1.4729288321506626
1.866875,1.454045487549019,1.4725961609416474
1.8675000000000002,1.4533681321048173,1.4725961609416474
1.868125,1.4530294543827165,1.4729288321506626
1.8687500000000001,1.4530294543827165,1.4732615033596779
1.869375,1.4533681321048173,1.4739268457777084
1.87,1.4530294543827165,1.474592188195739
1.870625,1.4530294543827165,1.4752575306137694
1.87125,1.4533681321048173,1.4759228730318
1.8718750000000002,1.4530294543827165,1.4769208866588455
1.8725,1.4530294543827165,1.477586229076876
1.8731250000000002,1.4526907766606156,1.4785842427039217
1.87375,1.452013421216414,1.4792495851219523
1.8743750000000001,1.4513360657722123,1.4799149275399828
1.875,1.4506587103280106,1.4805802699580133
1.875625,1.4493039994396073,1.4809129411670285
1.8762500000000002,1.4486266439954056,1.4809129411670285
1.876875,1.4482879662733048,1.4812456123760438
1.8775000000000002,1.447949288551204,1.4812456123760438
1.878125,1.4472719331070023,1.4809129411670285
1.8787500000000001,1.4469332553849015,1.4805802699580133
1.879375,1.4462558999407,1.4799149275399828
1.8800000000000001,1.4455785444964984,1.478916913912937
1.880625,1.4449011890522967,1.4779189002858912
1.88125,1.4449011890522967,1.4769208866588455
1.8818750000000002,1.4452398667743975,1.4755902018227847
1.8825,1.4455785444964984,1.474592188195739
1.8831250000000002,1.4462558999407,1.4735941745686931
1.88375,1.4469332553849015,1.4725961609416474
1.8843750000000001,1.4472719331070023,1.4719308185236168
1.885,1.4476106108291031,1.470932804896571
1.885625,1.4482879662733048,1.470600133687556
1.88625,1.4482879662733048,1.4699347912695255
1.886875,1.4476106108291031,1.4696021200605103
1.8875000000000002,1.4472719331070023,1.4696021200605103
1.888125,1.4465945776628006,1.4699347912695255
1.8887500000000002,1.4459172222185992,1.4702674624785408
1.889375,1.4449011890522967,1.470600133687556
1.8900000000000001,1.444223833608095,1.4712654761055863
1.890625,1.4432078004417925,1.472263489732632
1.89125,1.4425304449975909,1.4729288321506626
1.8918750000000002,1.4418530895533892,1.4735941745686931
1.8925,1.4411757341091875,1.474592188195739
1.8931250000000002,1.4404983786649859,1.4755902018227847
1.89375,1.440159700942885,1.476255544240815
1.8943750000000001,1.4394823454986834,1.4769208866588455
1.895,1.4388049900544817,1.477586229076876
1.8956250000000001,1.4388049900544817,1.4779189002858912
1.89625,1.4384663123323809,1.4782515714949065
1.896875,1.4377889568881794,1.4779189002858912
1.8975000000000002,1.4377889568881794,1.477586229076876
1.898125,1.4377889568881794,1.4772535578678607
1.8987500000000002,1.4377889568881794,1.4769208866588455
1.899375,1.43812763461028,1.476255544240815
1.9000000000000001,1.43812763461028,1.4755902018227847
1.900625,1.43812763461028,1.474592188195739
1.90125,1.4384663123323809,1.4735941745686931
1.901875,1.4391436677765825,1.4725961609416474
1.9025,1.4394823454986834,1.4715981473146016
1.9031250000000002,1.440159700942885,1.470600133687556
1.90375,1.440159700942885,1.469269448851495
1.9043750000000002,1.4408370563870867,1.4682714352244493
1.905,1.4411757341091875,1.4676060928064187
1.9056250000000001,1.4415144118312884,1.4669407503883882
1.90625,1.4418530895533892,1.4662754079703577
1.906875,1.4425304449975909,1.4662754079703577
1.9075000000000002,1.4428691227196917,1.4662754079703577
1.908125,1.44219176727549,1.4662754079703577
1.9087500000000002,1.4415144118312884,1.466608079179373
1.909375,1.4408370563870867,1.4669407503883882
1.9100000000000001,1.4398210232207842,1.4676060928064187
1.910625,1.4391436677765825,1.4686041064334645
1.9112500000000001,1.4384663123323809,1.469269448851495
1.911875,1.4374502791660786,1.4702674624785408
1.9125,1.436772923721877,1.4712654761055863
1.9131250000000002,1.436434245999776,1.472263489732632
1.91375,1.4360955682776753,1.4732615033596779
1.9143750000000002,1.4354182128334736,1.4739268457777084
1.915,1.434740857389272,1.474592188195739
1.9156250000000001,1.4340635019450703,1.4752575306137694
1.91625,1.4337248242229694,1.4755902018227847
1.916875,1.4330474687787678,1.4759228730318
1.9175,1.4320314356124653,1.4759228730318
1.918125,1.4313540801682636,1.4755902018227847
1.9187500000000002,1.4310154024461628,1.4749248594047542
1.919375,1.4310154024461628,1.474592188195739
1.9200000000000002,1.4313540801682636,1.4739268457777084
1.920625,1.432370113334566,1.4732615033596779
1.9212500000000001,1.4337248242229694,1.472263489732632
1.921875,1.4350795351113728,1.4715981473146016
1.9225,1.4360955682776753,1.470600133687556
1.9231250000000002,1.436772923721877,1.4699347912695255
1.92375,1.4371116014439778,1.469269448851495
1.9243750000000002,1.4374502791660786,1.4682714352244493
1.925,1.4374502791660786,1.4676060928064187
1.9256250000000001,1.4377889568881794,1.4672734215974035
1.92625,1.4374502791660786,1.4669407503883882
1.9268750000000001,1.4374502791660786,1.466608079179373
1.9275,1.4374502791660786,1.4669407503883882
1.928125,1.4371116014439778,1.4672734215974035
1.9287500000000002,1.436434245999776,1.4672734215974035
1.929375,1.4360955682776753,1.467938764015434
1.9300000000000002,1.4357568905555744,1.4686041064334645
1.930625,1.4354182128334736,1.4696021200605103
1.9312500000000001,1.4354182128334736,1.4702674624785408
1.931875,1.4357568905555744,1.4712654761055863
1.9325,1.4360955682776753,1.4725961609416474
1.933125,1.436434245999776,1.4735941745686931
1.93375,1.436434245999776,1.474592188195739
1.9343750000000002,1.4371116014439778,1.4755902018227847
1.935,1.4377889568881794,1.476255544240815
1.9356250000000002,1.4388049900544817,1.4769208866588455
1.93625,1.4398210232207842,1.477586229076876
1.9368750000000001,1.4404983786649859,1.4779189002858912
1.9375,1.4404983786649859,1.4779189002858912
1.938125,1.4398210232207842,1.4779189002858912
1.9387500000000002,1.4391436677765825,1.4772535578678607
1.939375,1.4388049900544817,1.4769208866588455
1.9400000000000002,1.4384663123323809,1.4759228730318
1.940625,1.43812763461028,1.4752575306137694
1.9412500000000001,1.4377889568881794,1.4739268457777084
1.941875,1.43812763461028,1.4729288321506626
1.9425000000000001,1.43812763461028,1.4719308185236168
1.943125,1.4377889568881794,1.470932804896571
1.94375,1.4371116014439778,1.4699347912695255
1.9443750000000002,1.4374502791660786,1.469269448851495
1.945,1.4377889568881794,1.4686041064334645
1.9456250000000002,1.4377889568881794,1.4682714352244493
1.94625,1.4377889568881794,1.4676060928064187
1.9468750000000001,1.4371116014439778,1.4676060928064187
1.9475,1.436772923721877,1.4676060928064187
1.948125,1.436772923721877,1.4676060928064187
1.94875,1.436434245999776,1.467938764015434
1.949375,1.4357568905555744,1.4686041064334645
1.9500000000000002,1.4350795351113728,1.469269448851495
1.950625,1.434402179667171,1.4702674624785408
1.9512500000000002,1.4333861465008686,1.470932804896571
1.951875,1.432708791056667,1.4719308185236168
1.9525000000000001,1.4316927578903644,1.4729288321506626
1.953125,1.4310154024461628,1.4735941745686931
1.95375,1.4299993692798605,1.474592188195739
1.9543750000000002,1.4296606915577597,1.4755902018227847
1.955,1.428983336113558,1.476255544240815
1.9556250000000002,1.4286446583914572,1.4765882154498302
1.95625,1.4283059806693563,1.4769208866588455
1.9568750000000001,1.4283059806693563,1.4772535578678607
1.9575,1.4283059806693563,1.4769208866588455
1.9581250000000001,1.4286446583914572,1.4769208866588455
1.95875,1.428983336113558,1.4765882154498302
1.959375,1.4293220138356588,1.4759228730318
1.9600000000000002,1.4299993692798605,1.4752575306137694
1.960625,1.430676724724062,1.4742595169867236
1.9612500000000002,1.4310154024461628,1.4732615033596779
1.961875,1.4316927578903644,1.472263489732632
1.9625000000000001,1.432708791056667,1.4712654761055863
1.963125,1.4333861465008684,1.470267462478541
1.96375,1.4340635019450703,1.469269448851495
1.964375,1.4347408573892717,1.4686041064334647
1.965,1.4350795351113728,1.4676060928064187
1.9656250000000002,1.4354182128334736,1.4672734215974033
1.96625,1.4357568905555744,1.466608079179373
1.9668750000000002,1.4360955682776753,1.466608079179373
1.9675,1.4357568905555744,1.466608079179373
1.9681250000000001,1.4354182128334736,1.4669407503883882
1.96875,1.4354182128334736,1.4672734215974035
1.969375,1.434740857389272,1.4676060928064187
1.9700000000000002,1.4344021796671709,1.4682714352244495
1.970625,1.4337248242229694,1.469269448851495
1.9712500000000002,1.4333861465008684,1.470267462478541
1.971875,1.432708791056667,1.470932804896571
1.9725000000000001,1.4316927578903644,1.4719308185236168
1.973125,1.4310154024461628,1.4725961609416474
1.9737500000000001,1.430338047001961,1.4735941745686931
1.974375,1.4299993692798605,1.4742595169867234
1.975,1.4293220138356588,1.4749248594047542
1.9756250000000002,1.428983336113558,1.4752575306137694
1.97625,1.4286446583914572,1.4755902018227847
1.9768750000000002,1.428983336113558,1.4755902018227847
1.9775,1.428983336113558,1.4755902018227847
1.9781250000000001,1.4293220138356588,1.4752575306137694
1.97875,1.4296606915577597,1.4749248594047542
1.979375,1.430338047001961,1.4742595169867236
1.98,1.430676724724062,1.4735941745686933
1.980625,1.4316927578903644,1.4725961609416474
1.9812500000000002,1.4323701133345663,1.4715981473146014
1.981875,1.4333861465008686,1.470600133687556
1.9825000000000002,1.4340635019450703,1.4696021200605103
1.983125,1.4350795351113728,1.4689367776424798
1.9837500000000001,1.4360955682776753,1.4682714352244493
1.984375,1.4374502791660784,1.4672734215974037
1.985,1.4388049900544817,1.4669407503883882
1.9856250000000002,1.4398210232207844,1.4662754079703577
1.98625,1.4408370563870867,1.4659427367613425
1.9868750000000002,1.4415144118312886,1.4659427367613425
1.9875,1.4425304449975909,1.4659427367613425
1.9881250000000001,1.4432078004417925,1.466608079179373
1.98875,1.444223833608095,1.4669407503883882
1.9893750000000001,1.4445625113301959,1.4676060928064187
1.99,1.4445625113301959,1.4686041064334643
1.990625,1.444223833608095,1.469269448851495
1.9912500000000002,1.443207800441792,1.470267462478541
1.991875,1.4408370563870867,1.4712654761055863
1.9925000000000002,1.4377889568881794,1.472263489732632
1.993125,1.4350795351113728,1.4729288321506626
1.9937500000000001,1.4330474687787678,1.4739268457777084
1.994375,1.4320314356124655,1.4745921881957387
1.995,1.4316927578903644,1.4752575306137694
1.995625,1.431015402446163,1.4755902018227847
1.99625,1.430338047001961,1.4759228730318
1.9968750000000002,1.4299993692798605,1.476255544240815
1.9975,1.430338047001961,1.476255544240815
1.9981250000000002,1.430338047001961,1.4759228730318
1.99875,1.430676724724062,1.4755902018227847
1.9993750000000001,1.4316927578903644,1.4752575306137694
2,1.4327087910566667,1.4745921881957391
2.0006250000000003,1.433386146500869,1.4739268457777082
2.00125,1.4344021796671713,1.4732615033596776
2.001875,1.4350795351113728,1.472263489732632
2.0025000000000004,1.4364342459997763,1.4715981473146011
2.003125,1.4371116014439775,1.4706001336875565
2.00375,1.4377889568881794,1.4699347912695255
2.004375,1.4384663123323809,1.469269448851495
2.005,1.4391436677765823,1.4686041064334647
2.005625,1.4394823454986834,1.4682714352244493
2.00625,1.4398210232207842,1.467938764015434
2.006875,1.440159700942885,1.467938764015434
2.0075000000000003,1.4398210232207842,1.467938764015434
2.008125,1.4398210232207842,1.4682714352244493
2.00875,1.4394823454986834,1.4689367776424798
2.0093750000000004,1.4391436677765823,1.4696021200605105
2.01,1.438804990054482,1.4702674624785406
2.010625,1.43812763461028,1.4712654761055863
2.01125,1.4374502791660788,1.4719308185236166
2.011875,1.4367729237218771,1.4729288321506622
2.0125,1.4364342459997759,1.4742595169867239
2.013125,1.4357568905555744,1.4749248594047542
2.01375,1.4354182128334736,1.4759228730317997
2.0143750000000002,1.4350795351113725,1.4765882154498304
2.015,1.4340635019450703,1.4772535578678607
2.015625,1.4337248242229694,1.477918900285891
2.0162500000000003,1.4333861465008686,1.4785842427039217
2.016875,1.4333861465008686,1.4785842427039217
2.0175,1.4333861465008686,1.4785842427039217
2.0181250000000004,1.4337248242229694,1.4782515714949063
2.01875,1.4337248242229694,1.4779189002858915
2.019375,1.4340635019450703,1.477586229076876
2.02,1.4350795351113728,1.4769208866588455
2.020625,1.436095568277675,1.4762555442408152
2.02125,1.4371116014439778,1.4755902018227847
2.021875,1.43812763461028,1.4749248594047542
2.0225,1.4388049900544817,1.4739268457777084
2.0231250000000003,1.4394823454986834,1.4729288321506626
2.02375,1.440159700942885,1.472263489732632
2.024375,1.4408370563870867,1.4715981473146016
2.0250000000000004,1.4415144118312886,1.4709328048965709
2.025625,1.441853089553389,1.4706001336875563
2.02625,1.4425304449975909,1.4702674624785408
2.026875,1.4428691227196917,1.4699347912695255
2.0275,1.4428691227196917,1.4702674624785406
2.028125,1.4428691227196917,1.470600133687556
2.02875,1.4425304449975909,1.470932804896571
2.029375,1.44219176727549,1.4712654761055863
2.0300000000000002,1.4418530895533892,1.4719308185236168
2.030625,1.4411757341091875,1.4729288321506626
2.03125,1.4404983786649859,1.4739268457777084
2.0318750000000003,1.439821023220784,1.4749248594047546
2.0325,1.4391436677765825,1.4759228730318
2.033125,1.4384663123323809,1.4769208866588455
2.0337500000000004,1.4381276346102798,1.4779189002858915
2.034375,1.4377889568881796,1.4785842427039215
2.035,1.4374502791660786,1.4792495851219523
2.035625,1.4374502791660786,1.4799149275399828
2.03625,1.4374502791660786,1.480247598748998
2.036875,1.4374502791660786,1.480247598748998
2.0375,1.4374502791660786,1.4805802699580133
2.038125,1.4377889568881794,1.480247598748998
2.0387500000000003,1.4384663123323809,1.4799149275399828
2.039375,1.4391436677765825,1.4792495851219523
2.04,1.4398210232207842,1.478916913912937
2.0406250000000004,1.4404983786649863,1.477918900285891
2.04125,1.441514411831288,1.477253557867861
2.041875,1.4425304449975909,1.4759228730318
2.0425,1.4432078004417925,1.4749248594047542
2.043125,1.443885155885994,1.4742595169867239
2.04375,1.4445625113301959,1.4732615033596779
2.044375,1.4452398667743975,1.4725961609416474
2.045,1.4455785444964984,1.4715981473146016
2.0456250000000002,1.4459172222185992,1.4712654761055863
2.04625,1.4462558999407,1.470600133687556
2.046875,1.4465945776628006,1.470600133687556
2.0475000000000003,1.4465945776628004,1.470932804896571
2.048125,1.4462558999407,1.470932804896571
2.04875,1.4459172222185992,1.4712654761055863
2.0493750000000004,1.445917222218599,1.471930818523617
2.05,1.4455785444964986,1.4722634897326319
2.050625,1.4452398667743975,1.4729288321506626
2.05125,1.4449011890522967,1.4739268457777084
2.051875,1.4445625113301959,1.474592188195739
2.0525,1.4438851558859942,1.4755902018227847
2.053125,1.4435464781638934,1.4765882154498302
2.05375,1.4428691227196917,1.4772535578678607
2.0543750000000003,1.4425304449975909,1.4782515714949065
2.055,1.44219176727549,1.478916913912937
2.055625,1.44219176727549,1.4792495851219523
2.0562500000000004,1.4421917672754903,1.4795822563309675
2.056875,1.4425304449975906,1.4795822563309675
2.0575,1.4435464781638934,1.4795822563309675
2.058125,1.4449011890522967,1.4792495851219523
2.05875,1.4459172222185988,1.4789169139129372
2.059375,1.4465945776628006,1.4782515714949065
2.06,1.4476106108291031,1.4772535578678607
2.060625,1.4486266439954056,1.476255544240815
2.0612500000000002,1.4496426771617081,1.4752575306137694
2.061875,1.449981354883809,1.4742595169867236
2.0625,1.449981354883809,1.4732615033596779
2.0631250000000003,1.4489653217175067,1.4722634897326317
2.06375,1.4493039994396073,1.4712654761055863
2.064375,1.4493039994396073,1.4702674624785408
2.0650000000000004,1.4493039994396075,1.46960212006051
2.065625,1.449642677161708,1.4692694488514952
2.06625,1.449981354883809,1.4689367776424798
2.066875,1.4503200326059098,1.4686041064334645
2.0675,1.4503200326059098,1.4686041064334645
2.068125,1.4503200326059098,1.4689367776424798
2.06875,1.449981354883809,1.469269448851495
2.069375,1.4493039994396073,1.4699347912695255
2.0700000000000003,1.4486266439954056,1.470932804896571
2.070625,1.447949288551204,1.4715981473146016
2.07125,1.4472719331070023,1.4725961609416474
2.0718750000000004,1.4469332553849013,1.4735941745686936
2.0725,1.4465945776628009,1.4745921881957385
2.073125,1.4462558999407,1.4755902018227847
2.07375,1.4459172222185992,1.476255544240815
2.074375,1.4455785444964986,1.4772535578678603
2.075,1.4455785444964984,1.4779189002858912
2.075625,1.4455785444964984,1.4785842427039217
2.07625,1.4455785444964984,1.478916913912937
2.0768750000000002,1.4455785444964984,1.4792495851219523
2.0775,1.4455785444964984,1.4792495851219523
2.078125,1.4459172222185992,1.478916913912937
2.0787500000000003,1.4465945776628009,1.4789169139129368
2.079375,1.4469332553849015,1.4782515714949065
2.08,1.4476106108291031,1.477586229076876
2.0806250000000004,1.4479492885512042,1.476920886658845
2.08125,1.4482879662733046,1.4759228730318004
2.081875,1.4489653217175065,1.4749248594047542
2.0825,1.4496426771617081,1.4739268457777084
2.083125,1.4503200326059098,1.4729288321506626
2.08375,1.4509973880501115,1.4719308185236168
2.084375,1.452013421216414,1.470932804896571
2.085,1.4530294543827165,1.4702674624785408
2.0856250000000003,1.4533681321048173,1.4699347912695255
2.08625,1.4537068098269181,1.469269448851495
2.086875,1.4537068098269181,1.4689367776424798
2.0875000000000004,1.4543841652711198,1.46893677764248
2.088125,1.4543841652711198,1.4692694488514948
2.08875,1.4550615207153212,1.4696021200605103
2.089375,1.455400198437422,1.4702674624785408
2.09,1.455400198437422,1.4706001336875558
2.090625,1.455738876159523,1.4715981473146016
2.09125,1.455738876159523,1.472263489732632
2.091875,1.455738876159523,1.4732615033596779
2.0925000000000002,1.455400198437422,1.4742595169867236
2.093125,1.455400198437422,1.4752575306137694
2.09375,1.455400198437422,1.4759228730318
2.0943750000000003,1.45472284299322,1.4765882154498307
2.095,1.4537068098269181,1.477586229076876
2.095625,1.4523520989385148,1.4779189002858912
2.0962500000000004,1.4509973880501112,1.4782515714949067
2.096875,1.45032003260591,1.4785842427039215
2.0975,1.449981354883809,1.4782515714949065
2.098125,1.449981354883809,1.4782515714949065
2.09875,1.4506587103280106,1.4779189002858912
2.099375,1.4509973880501115,1.477586229076876
2.1,1.452013421216414,1.4765882154498302
2.100625,1.4533681321048173,1.4759228730318
2.1012500000000003,1.4550615207153212,1.4749248594047542
2.101875,1.4564162316037246,1.4739268457777084
2.1025,1.457770942492128,1.4729288321506626
2.1031250000000004,1.4584482979363298,1.4722634897326317
2.10375,1.459125653380531,1.4712654761055868
2.104375,1.459803008824733,1.4702674624785408
2.105,1.4601416865468337,1.4696021200605103
2.105625,1.4601416865468337,1.46893677764248
2.10625,1.459803008824733,1.4686041064334645
2.106875,1.459803008824733,1.4682714352244493
2.1075,1.459464331102632,1.4682714352244493
2.1081250000000002,1.4587869756584304,1.4686041064334645
2.10875,1.457770942492128,1.4686041064334645
2.109375,1.4567549093258254,1.469269448851495
2.1100000000000003,1.4560775538816235,1.4699347912695258
2.110625,1.455400198437422,1.470600133687556
2.11125,1.4543841652711198,1.4712654761055863
2.1118750000000004,1.453706809826918,1.4719308185236175
2.1125,1.4530294543827167,1.4732615033596772
2.113125,1.4523520989385148,1.4739268457777084
2.11375,1.4516747434943131,1.4749248594047542
2.114375,1.4509973880501115,1.4755902018227847
2.115,1.4503200326059098,1.476255544240815
2.115625,1.4503200326059098,1.4765882154498302
2.11625,1.4503200326059098,1.4769208866588455
2.1168750000000003,1.4503200326059098,1.4769208866588455
2.1175,1.4506587103280106,1.4769208866588455
2.118125,1.4509973880501115,1.4765882154498302
2.1187500000000004,1.4513360657722125,1.4762555442408147
2.119375,1.451674743494313,1.4755902018227849
2.12,1.4526907766606156,1.4749248594047542
2.120625,1.4537068098269181,1.4739268457777084
2.12125,1.45472284299322,1.473261503359678
2.121875,1.455400198437422,1.472263489732632
2.1225,1.4564162316037246,1.4712654761055863
2.123125,1.4570935870479262,1.4702674624785408
2.1237500000000002,1.4581096202142287,1.4696021200605103
2.124375,1.4591256533805312,1.4686041064334645
2.125,1.459803008824733,1.467938764015434
2.1256250000000003,1.460141686546834,1.4672734215974033
2.12625,1.4608190419910354,1.4669407503883882
2.126875,1.461496397435237,1.4669407503883882
2.1275000000000004,1.4621737528794387,1.4672734215974035
2.128125,1.4621737528794387,1.4672734215974035
2.12875,1.4621737528794387,1.467938764015434
2.129375,1.461496397435237,1.4682714352244493
2.13,1.4608190419910354,1.4689367776424798
2.130625,1.4601416865468337,1.4699347912695255
2.13125,1.459464331102632,1.470932804896571
2.131875,1.4587869756584304,1.4715981473146016
2.1325000000000003,1.4584482979363296,1.4725961609416474
2.133125,1.457770942492128,1.4735941745686931
2.13375,1.457432264770027,1.4742595169867236
2.1343750000000004,1.4564162316037244,1.4749248594047546
2.135,1.4557388761595231,1.4759228730317995
2.135625,1.455400198437422,1.476255544240815
2.13625,1.4550615207153212,1.4769208866588455
2.136875,1.4550615207153212,1.4769208866588455
2.1375,1.455400198437422,1.4769208866588455
2.138125,1.455400198437422,1.4769208866588455
2.13875,1.4560775538816237,1.476255544240815
2.1393750000000002,1.4564162316037246,1.4759228730318
2.14,1.4570935870479262,1.4749248594047542
2.140625,1.4581096202142287,1.4742595169867236
2.1412500000000003,1.4587869756584306,1.4735941745686927
2.141875,1.459464331102632,1.4725961609416474
2.1425,1.4604803642689346,1.4712654761055863
2.1431250000000004,1.4611577197131365,1.4706001336875556
2.14375,1.4618350751573377,1.4696021200605107
2.144375,1.4625124306015396,1.4686041064334645
2.145,1.463189786045741,1.467938764015434
2.145625,1.4638671414899427,1.4676060928064187
2.14625,1.4642058192120435,1.4669407503883882
2.146875,1.4642058192120435,1.466608079179373
2.1475,1.4645444969341443,1.4669407503883882
2.1481250000000003,1.4642058192120435,1.4669407503883882
2.14875,1.4642058192120435,1.4672734215974035
2.149375,1.4638671414899427,1.467938764015434
2.1500000000000004,1.4631897860457408,1.4682714352244495
2.150625,1.4628511083236406,1.4689367776424795
2.15125,1.4621737528794387,1.4699347912695255
2.151875,1.461496397435237,1.470932804896571
2.1525,1.4608190419910356,1.4715981473146014
2.153125,1.4604803642689346,1.4725961609416474
2.15375,1.459803008824733,1.4732615033596779
2.154375,1.4591256533805312,1.4742595169867236
2.1550000000000002,1.4587869756584304,1.4749248594047542
2.155625,1.4584482979363296,1.4752575306137694
2.15625,1.4584482979363296,1.4755902018227847
2.1568750000000003,1.4584482979363296,1.4755902018227847
2.1575,1.4584482979363296,1.4755902018227847
2.158125,1.4587869756584304,1.4752575306137694
2.1587500000000004,1.4591256533805315,1.474924859404754
2.159375,1.4598030088247327,1.4742595169867239
2.16,1.4604803642689346,1.4735941745686931
2.160625,1.4611577197131362,1.4725961609416474
2.16125,1.4621737528794387,1.4715981473146016
2.161875,1.4628511083236404,1.470600133687556
2.1625,1.4638671414899427,1.4696021200605103
2.163125,1.4642058192120435,1.4686041064334645
2.1637500000000003,1.4648831746562452,1.4676060928064187
2.164375,1.4655605301004468,1.4669407503883882
2.165,1.4665765632667493,1.4662754079703577
2.1656250000000004,1.4672539187109512,1.4656100655523272
2.16625,1.4675925964330516,1.4652773943433124
2.166875,1.4679312741551527,1.464944723134297
2.1675,1.4686086295993543,1.464944723134297
2.168125,1.4686086295993543,1.464944723134297
2.16875,1.4689473073214552,1.4652773943433122
2.169375,1.4686086295993543,1.4656100655523274
2.17,1.4686086295993543,1.4662754079703577
2.1706250000000002,1.4682699518772535,1.4669407503883882
2.17125,1.4675925964330518,1.467938764015434
2.171875,1.4669152409888502,1.4689367776424798
2.1725000000000003,1.4662378855446483,1.4696021200605107
2.173125,1.4655605301004468,1.470600133687556
2.17375,1.4642058192120435,1.4712654761055863
2.1743750000000004,1.4631897860457406,1.471930818523617
2.175,1.4621737528794392,1.4725961609416471
2.175625,1.4611577197131362,1.4729288321506626
2.17625,1.4604803642689346,1.4732615033596779
2.176875,1.4601416865468337,1.4732615033596779
2.1775,1.4601416865468337,1.4732615033596779
2.178125,1.4604803642689346,1.4729288321506626
2.17875,1.461496397435237,1.4725961609416474
2.1793750000000003,1.4621737528794387,1.4719308185236168
2.18,1.4628511083236404,1.4712654761055863
2.180625,1.4635284637678418,1.4702674624785408
2.1812500000000004,1.4645444969341446,1.4696021200605098
2.181875,1.4652218523783458,1.468604106433465
2.1825,1.4658992078225477,1.4676060928064187
2.183125,1.4665765632667493,1.466608079179373
2.18375,1.4672539187109508,1.4656100655523279
2.184375,1.4679312741551527,1.4646120519252817
2.185,1.4686086295993543,1.4639467095072511
2.185625,1.4689473073214552,1.4636140382982359
2.1862500000000002,1.4689473073214552,1.4629486958802054
2.186875,1.4689473073214552,1.4626160246711901
2.1875,1.4686086295993543,1.4626160246711901
2.1881250000000003,1.4686086295993541,1.4629486958802056
2.18875,1.4682699518772535,1.4632813670892206
2.189375,1.4682699518772535,1.4636140382982359
2.1900000000000004,1.4675925964330516,1.464612051925282
2.190625,1.4669152409888504,1.465610065552327
2.19125,1.4665765632667493,1.4662754079703577
2.191875,1.4658992078225477,1.4672734215974035
2.1925,1.465221852378346,1.4682714352244493
2.193125,1.4645444969341443,1.469269448851495
2.19375,1.4638671414899427,1.4699347912695255
2.194375,1.4635284637678418,1.470932804896571
2.1950000000000003,1.463189786045741,1.4715981473146016
2.195625,1.4628511083236404,1.4719308185236168
2.19625,1.4621737528794387,1.4725961609416474
2.1968750000000004,1.461835075157338,1.4729288321506626
2.1975,1.461835075157338,1.4729288321506626
2.198125,1.4621737528794387,1.4725961609416474
2.19875,1.4625124306015396,1.472263489732632
2.199375,1.4628511083236402,1.471930818523617
2.2,1.4635284637678418,1.4712654761055863
2.200625,1.4642058192120435,1.470600133687556
2.20125,1.4648831746562452,1.4699347912695255
2.2018750000000002,1.4655605301004468,1.4689367776424798
2.2025,1.4662378855446485,1.467938764015434
2.203125,1.4665765632667493,1.4669407503883882
2.2037500000000003,1.4672539187109512,1.4662754079703575
2.204375,1.4679312741551527,1.4656100655523274
2.205,1.4686086295993543,1.464944723134297
2.2056250000000004,1.4689473073214554,1.4642793807162662
2.20625,1.4692859850435558,1.4639467095072514
2.206875,1.4696246627656568,1.4639467095072511
2.2075,1.4696246627656568,1.4639467095072511
2.208125,1.469285985043556,1.4642793807162664
2.20875,1.469285985043556,1.4646120519252817
2.209375,1.4686086295993543,1.464944723134297
2.21,1.4679312741551527,1.4656100655523274
2.2106250000000003,1.4675925964330518,1.4662754079703577
2.21125,1.4665765632667493,1.4672734215974035
2.211875,1.4658992078225477,1.4682714352244493
2.2125000000000004,1.4652218523783458,1.4689367776424804
2.213125,1.4645444969341446,1.4702674624785401
2.21375,1.4638671414899427,1.470932804896571
2.214375,1.4635284637678418,1.4719308185236168
2.215,1.4631897860457412,1.4725961609416471
2.215625,1.463189786045741,1.4729288321506626
2.21625,1.4628511083236404,1.4735941745686931
2.216875,1.463189786045741,1.4739268457777084
2.2175000000000002,1.4635284637678418,1.4739268457777084
2.218125,1.4638671414899427,1.4735941745686931
2.21875,1.4648831746562452,1.4732615033596779
2.2193750000000003,1.4658992078225481,1.4725961609416471
2.22,1.4669152409888502,1.472263489732632
2.220625,1.4675925964330518,1.4712654761055863
2.2212500000000004,1.4689473073214556,1.4706001336875558
2.221875,1.4699633404877572,1.4699347912695258
2.2225,1.4706406959319593,1.4689367776424798
2.223125,1.4706406959319593,1.4682714352244493
