#Digilent WaveForms Oscilloscope Acquisition
#Device Name: Discovery2
#Serial Number: SN:210321A35B9C
#Date Time: 2022-05-20 16:19:09.437
#Sample rate: 4000Hz
#Samples: 8000
#Trigger: Source: Channel 1 Type: Edge Condition: Rising Level: 1.47789 V Hyst.: Auto HoldOff: 100 ns
#Channel 1: Range: 20 mV/div Offset: -1.45 V Attenuation: 1 X Sample Mode: Average
#Channel 2: Range: 20 mV/div Offset: -1.45 V Attenuation: 1 X Sample Mode: Average

Time (s),Channel 1 (V),Channel 2 (V)
-1,1.480597549273395,1.4844547408100381
-0.99975,1.4809362269954958,1.4847874120190534
-0.9995,1.4809362269954958,1.4847874120190534
-0.99925,1.4809362269954958,1.4851200832280687
-0.999,1.4809362269954958,1.4851200832280687
-0.99875,1.4809362269954958,1.485452754437084
-0.9985,1.4812749047175966,1.485452754437084
-0.99825,1.4812749047175966,1.485452754437084
-0.998,1.4812749047175966,1.4857854256460992
-0.99775,1.4812749047175966,1.4857854256460992
-0.9975,1.4812749047175966,1.4857854256460992
-0.99725,1.4812749047175966,1.4857854256460992
-0.997,1.4812749047175966,1.4857854256460992
-0.99675,1.4812749047175966,1.4857854256460992
-0.9965,1.4812749047175966,1.4857854256460992
-0.99625,1.4812749047175966,1.4857854256460992
-0.996,1.4809362269954958,1.4857854256460992
-0.99575,1.4809362269954958,1.4857854256460992
-0.9955,1.4809362269954958,1.485452754437084
-0.99525,1.480597549273395,1.485452754437084
-0.995,1.480258871551294,1.4851200832280687
-0.99475,1.4799201938291933,1.4847874120190534
-0.9945,1.4799201938291933,1.4847874120190534
-0.99425,1.4799201938291933,1.4847874120190534
-0.994,1.4795815161070924,1.4844547408100381
-0.99375,1.4792428383849916,1.4841220696010229
-0.9935,1.4792428383849916,1.4841220696010229
-0.99325,1.4789041606628908,1.4837893983920079
-0.993,1.4789041606628908,1.4837893983920079
-0.99275,1.4785654829407902,1.4834567271829926
-0.9925,1.4785654829407902,1.4831240559739773
-0.99225,1.4785654829407902,1.4831240559739773
-0.992,1.4785654829407902,1.482791384764962
-0.99175,1.4785654829407902,1.482791384764962
-0.9915,1.4782268052186893,1.4824587135559468
-0.99125,1.4782268052186893,1.4824587135559468
-0.991,1.4782268052186893,1.4821260423469316
-0.99075,1.4782268052186893,1.4817933711379163
-0.9905,1.4778881274965885,1.481460699928901
-0.99025,1.4775494497744877,1.4811280287198858
-0.99,1.4775494497744877,1.4807953575108705
-0.98975,1.4775494497744877,1.4811280287198858
-0.9895,1.4775494497744877,1.4811280287198858
-0.98925,1.4772107720523868,1.4807953575108705
-0.989,1.4772107720523868,1.4804626863018553
-0.98875,1.4772107720523868,1.48013001509284
-0.9885,1.476872094330286,1.48013001509284
-0.98825,1.476872094330286,1.48013001509284
-0.988,1.476872094330286,1.4797973438838248
-0.98775,1.4772107720523868,1.48013001509284
-0.9875,1.476872094330286,1.4797973438838248
-0.98725,1.4772107720523868,1.4797973438838248
-0.987,1.4772107720523868,1.4794646726748095
-0.98675,1.4772107720523868,1.4797973438838248
-0.9865,1.4772107720523868,1.4794646726748095
-0.98625,1.4775494497744877,1.4797973438838248
-0.986,1.4775494497744877,1.4797973438838248
-0.98575,1.4775494497744877,1.4797973438838248
-0.9855,1.4775494497744877,1.48013001509284
-0.98525,1.4778881274965885,1.48013001509284
-0.985,1.4778881274965885,1.4804626863018553
-0.98475,1.4782268052186893,1.4804626863018553
-0.9845,1.4782268052186893,1.4804626863018553
-0.98425,1.4785654829407902,1.4807953575108705
-0.984,1.4785654829407902,1.4807953575108705
-0.98375,1.4789041606628908,1.4811280287198858
-0.9835,1.4789041606628908,1.4811280287198858
-0.98325,1.4789041606628908,1.481460699928901
-0.983,1.4789041606628908,1.481460699928901
-0.98275,1.4792428383849916,1.4817933711379163
-0.9825,1.4792428383849916,1.4817933711379163
-0.98225,1.4792428383849916,1.4821260423469316
-0.982,1.4795815161070924,1.4821260423469316
-0.98175,1.4795815161070924,1.4824587135559468
-0.9815,1.4795815161070924,1.4824587135559468
-0.98125,1.4799201938291933,1.482791384764962
-0.981,1.4799201938291933,1.4831240559739773
-0.98075,1.480258871551294,1.4831240559739773
-0.9805,1.480258871551294,1.4831240559739773
-0.98025,1.480597549273395,1.4834567271829926
-0.98,1.480597549273395,1.4834567271829926
-0.97975,1.4809362269954958,1.4837893983920079
-0.9795,1.480597549273395,1.4837893983920079
-0.97925,1.4809362269954958,1.4841220696010229
-0.979,1.4809362269954958,1.4841220696010229
-0.97875,1.4809362269954958,1.4841220696010229
-0.9785,1.4809362269954958,1.4844547408100381
-0.97825,1.4809362269954958,1.4844547408100381
-0.978,1.4812749047175966,1.4844547408100381
-0.97775,1.4812749047175966,1.4844547408100381
-0.9775,1.4809362269954958,1.4844547408100381
-0.97725,1.4809362269954958,1.4847874120190534
-0.977,1.4809362269954958,1.4847874120190534
-0.97675,1.4809362269954958,1.4847874120190534
-0.9765,1.4809362269954958,1.4847874120190534
-0.97625,1.4809362269954958,1.4847874120190534
-0.976,1.480597549273395,1.4844547408100381
-0.97575,1.480597549273395,1.4844547408100381
-0.9755,1.480597549273395,1.4844547408100381
-0.97525,1.480597549273395,1.4841220696010229
-0.975,1.480258871551294,1.4841220696010229
-0.97475,1.480258871551294,1.4837893983920079
-0.9745,1.4799201938291933,1.4837893983920079
-0.97425,1.4799201938291933,1.4834567271829926
-0.974,1.4795815161070924,1.4834567271829926
-0.97375,1.4795815161070924,1.4831240559739773
-0.9735,1.4792428383849916,1.4831240559739773
-0.97325,1.4792428383849916,1.482791384764962
-0.973,1.4792428383849916,1.4824587135559468
-0.97275,1.4792428383849916,1.4824587135559468
-0.9725,1.4789041606628908,1.4821260423469316
-0.97225,1.4789041606628908,1.4817933711379163
-0.972,1.4789041606628908,1.4817933711379163
-0.97175,1.4785654829407902,1.481460699928901
-0.9715,1.4785654829407902,1.481460699928901
-0.97125,1.4782268052186893,1.4811280287198858
-0.971,1.4782268052186893,1.4807953575108705
-0.97075,1.4778881274965885,1.4807953575108705
-0.9705,1.4775494497744877,1.4804626863018553
-0.97025,1.4775494497744877,1.48013001509284
-0.97,1.4775494497744877,1.48013001509284
-0.96975,1.4772107720523868,1.4797973438838248
-0.9695,1.4772107720523868,1.4797973438838248
-0.96925,1.476872094330286,1.4794646726748095
-0.969,1.476872094330286,1.4794646726748095
-0.96875,1.4765334166081852,1.4791320014657943
-0.9685,1.4765334166081852,1.4791320014657943
-0.96825,1.4765334166081852,1.4787993302567792
-0.968,1.4761947388860843,1.4791320014657943
-0.96775,1.4761947388860843,1.4791320014657943
-0.9675,1.4761947388860843,1.4787993302567792
-0.96725,1.4758560611639835,1.4787993302567792
-0.967,1.4761947388860843,1.4787993302567792
-0.96675,1.4758560611639835,1.4787993302567792
-0.9665,1.4758560611639835,1.4787993302567792
-0.96625,1.4758560611639835,1.4787993302567792
-0.966,1.4761947388860843,1.4787993302567792
-0.96575,1.4761947388860843,1.4791320014657943
-0.9655,1.4765334166081852,1.4791320014657943
-0.96525,1.4765334166081852,1.4791320014657943
-0.965,1.4765334166081852,1.4791320014657943
-0.96475,1.4772107720523868,1.4794646726748095
-0.9645,1.4772107720523868,1.4797973438838248
-0.96425,1.4775494497744877,1.48013001509284
-0.964,1.4775494497744877,1.4797973438838248
-0.96375,1.4778881274965885,1.48013001509284
-0.9635,1.4782268052186893,1.4804626863018553
-0.96325,1.4782268052186893,1.4804626863018553
-0.963,1.4785654829407902,1.4807953575108705
-0.96275,1.4789041606628908,1.4811280287198858
-0.9625,1.4789041606628908,1.4811280287198858
-0.96225,1.4792428383849916,1.481460699928901
-0.962,1.4792428383849916,1.481460699928901
-0.96175,1.4795815161070924,1.4817933711379163
-0.9615,1.4795815161070924,1.4817933711379163
-0.96125,1.4799201938291933,1.4821260423469316
-0.961,1.4799201938291933,1.4824587135559468
-0.96075,1.480258871551294,1.4824587135559468
-0.9605,1.480258871551294,1.4824587135559468
-0.96025,1.480597549273395,1.482791384764962
-0.96,1.4809362269954958,1.4831240559739773
-0.95975,1.4809362269954958,1.4831240559739773
-0.9595,1.4809362269954958,1.4831240559739773
-0.95925,1.4809362269954958,1.4834567271829926
-0.959,1.4812749047175966,1.4834567271829926
-0.95875,1.4812749047175966,1.4834567271829926
-0.9585,1.4812749047175966,1.4837893983920079
-0.95825,1.4812749047175966,1.4837893983920079
-0.958,1.4816135824396974,1.4837893983920079
-0.95775,1.4816135824396974,1.4834567271829926
-0.9575,1.4812749047175966,1.4837893983920079
-0.95725,1.4812749047175966,1.4837893983920079
-0.957,1.4812749047175966,1.4837893983920079
-0.95675,1.4812749047175966,1.4837893983920079
-0.9565,1.4809362269954958,1.4834567271829926
-0.95625,1.4809362269954958,1.4834567271829926
-0.956,1.4809362269954958,1.4834567271829926
-0.95575,1.480597549273395,1.4831240559739773
-0.9555,1.480597549273395,1.4831240559739773
-0.95525,1.480597549273395,1.482791384764962
-0.955,1.480597549273395,1.482791384764962
-0.95475,1.4799201938291933,1.4824587135559468
-0.9545,1.4799201938291933,1.4824587135559468
-0.95425,1.4795815161070924,1.4821260423469316
-0.954,1.4792428383849916,1.4821260423469316
-0.95375,1.4792428383849916,1.4817933711379163
-0.9535,1.4789041606628908,1.4817933711379163
-0.95325,1.4785654829407902,1.4817933711379163
-0.953,1.4782268052186893,1.481460699928901
-0.95275,1.4778881274965885,1.4811280287198858
-0.9525,1.4775494497744877,1.4811280287198858
-0.95225,1.4775494497744877,1.4807953575108705
-0.952,1.4772107720523868,1.4804626863018553
-0.95175,1.4772107720523868,1.4804626863018553
-0.9515,1.476872094330286,1.4804626863018553
-0.95125,1.4765334166081852,1.48013001509284
-0.951,1.4765334166081852,1.4797973438838248
-0.95075,1.4761947388860843,1.4794646726748095
-0.9505,1.4758560611639835,1.4791320014657943
-0.95025,1.4758560611639835,1.4787993302567792
-0.95,1.4755173834418827,1.4787993302567792
-0.94975,1.4755173834418827,1.478466659047764
-0.9495,1.4751787057197818,1.478466659047764
-0.94925,1.4751787057197818,1.4781339878387487
-0.949,1.4751787057197818,1.4781339878387487
-0.94875,1.474840027997681,1.4781339878387487
-0.9485,1.474840027997681,1.4778013166297335
-0.94825,1.4745013502755802,1.4778013166297335
-0.948,1.4745013502755802,1.4778013166297335
-0.94775,1.4745013502755802,1.4778013166297335
-0.9475,1.4745013502755802,1.4774686454207182
-0.94725,1.4745013502755802,1.4778013166297335
-0.947,1.4745013502755802,1.4774686454207182
-0.94675,1.474840027997681,1.4778013166297335
-0.9465,1.474840027997681,1.4778013166297335
-0.94625,1.474840027997681,1.4778013166297335
-0.946,1.474840027997681,1.4778013166297335
-0.94575,1.474840027997681,1.4778013166297335
-0.9455,1.4751787057197818,1.4778013166297335
-0.94525,1.4751787057197818,1.4781339878387487
-0.945,1.4755173834418827,1.4781339878387487
-0.94475,1.4755173834418827,1.4781339878387487
-0.9445,1.4755173834418827,1.4781339878387487
-0.94425,1.4758560611639835,1.478466659047764
-0.944,1.4758560611639835,1.4787993302567792
-0.94375,1.4761947388860843,1.4787993302567792
-0.9435,1.4761947388860843,1.4791320014657943
-0.94325,1.4765334166081852,1.4794646726748095
-0.943,1.476872094330286,1.4794646726748095
-0.94275,1.476872094330286,1.4797973438838248
-0.9425,1.4772107720523868,1.4797973438838248
-0.94225,1.4775494497744877,1.48013001509284
-0.942,1.4778881274965885,1.4804626863018553
-0.94175,1.4782268052186893,1.48013001509284
-0.9415,1.4785654829407902,1.4804626863018553
-0.94125,1.4785654829407902,1.4807953575108705
-0.941,1.4789041606628908,1.4811280287198858
-0.94075,1.4789041606628908,1.4811280287198858
-0.9405,1.4792428383849916,1.481460699928901
-0.94025,1.4792428383849916,1.481460699928901
-0.94,1.4795815161070924,1.4817933711379163
-0.93975,1.4795815161070924,1.4817933711379163
-0.9395,1.4799201938291933,1.4821260423469316
-0.93925,1.4799201938291933,1.4821260423469316
-0.939,1.4799201938291933,1.4824587135559468
-0.93875,1.480258871551294,1.482791384764962
-0.9385,1.480258871551294,1.482791384764962
-0.93825,1.480258871551294,1.482791384764962
-0.938,1.480258871551294,1.482791384764962
-0.93775,1.480597549273395,1.4831240559739773
-0.9375,1.480258871551294,1.4831240559739773
-0.93725,1.480258871551294,1.4831240559739773
-0.937,1.480258871551294,1.4831240559739773
-0.93675,1.480258871551294,1.4831240559739773
-0.9365,1.480258871551294,1.4831240559739773
-0.93625,1.480258871551294,1.4831240559739773
-0.936,1.480258871551294,1.4831240559739773
-0.93575,1.480258871551294,1.4831240559739773
-0.9355,1.4799201938291933,1.482791384764962
-0.93525,1.4799201938291933,1.482791384764962
-0.935,1.4795815161070924,1.4824587135559468
-0.93475,1.4792428383849916,1.4824587135559468
-0.9345,1.4792428383849916,1.4824587135559468
-0.93425,1.4789041606628908,1.4821260423469316
-0.934,1.4789041606628908,1.4817933711379163
-0.93375,1.4785654829407902,1.4817933711379163
-0.9335,1.4785654829407902,1.4817933711379163
-0.93325,1.4782268052186893,1.481460699928901
-0.933,1.4782268052186893,1.481460699928901
-0.93275,1.4782268052186893,1.4811280287198858
-0.9325,1.4778881274965885,1.4807953575108705
-0.93225,1.4775494497744877,1.4807953575108705
-0.932,1.4772107720523868,1.4804626863018553
-0.93175,1.4772107720523868,1.48013001509284
-0.9315,1.4772107720523868,1.48013001509284
-0.93125,1.476872094330286,1.4797973438838248
-0.931,1.476872094330286,1.4797973438838248
-0.93075,1.4765334166081852,1.4794646726748095
-0.9305,1.4765334166081852,1.4791320014657943
-0.93025,1.4765334166081852,1.4787993302567792
-0.93,1.476872094330286,1.4791320014657943
-0.92975,1.4765334166081852,1.4787993302567792
-0.9295,1.4765334166081852,1.478466659047764
-0.92925,1.4761947388860843,1.478466659047764
-0.929,1.4765334166081852,1.4781339878387487
-0.92875,1.4761947388860843,1.4781339878387487
-0.9285,1.4761947388860843,1.4778013166297335
-0.92825,1.4761947388860843,1.4778013166297335
-0.928,1.4761947388860843,1.4774686454207182
-0.92775,1.4761947388860843,1.4778013166297335
-0.9275,1.4765334166081852,1.4778013166297335
-0.92725,1.4765334166081852,1.4778013166297335
-0.927,1.4765334166081852,1.4774686454207182
-0.92675,1.4765334166081852,1.4774686454207182
-0.9265,1.4765334166081852,1.4774686454207182
-0.92625,1.4765334166081852,1.4774686454207182
-0.926,1.4765334166081852,1.4774686454207182
-0.92575,1.476872094330286,1.4774686454207182
-0.9255,1.476872094330286,1.4778013166297335
-0.92525,1.476872094330286,1.4778013166297335
-0.925,1.4772107720523868,1.4778013166297335
-0.92475,1.4772107720523868,1.4781339878387487
-0.9245,1.4775494497744877,1.4781339878387487
-0.92425,1.4775494497744877,1.478466659047764
-0.924,1.4775494497744877,1.4787993302567792
-0.92375,1.4778881274965885,1.4787993302567792
-0.9235,1.4778881274965885,1.4791320014657943
-0.92325,1.4782268052186893,1.4794646726748095
-0.923,1.4782268052186893,1.4794646726748095
-0.92275,1.4782268052186893,1.4797973438838248
-0.9225,1.4785654829407902,1.48013001509284
-0.92225,1.4785654829407902,1.4804626863018553
-0.922,1.4785654829407902,1.4804626863018553
-0.92175,1.4785654829407902,1.4807953575108705
-0.9215,1.4785654829407902,1.4807953575108705
-0.92125,1.4785654829407902,1.4811280287198858
-0.921,1.4785654829407902,1.481460699928901
-0.92075,1.4789041606628908,1.4817933711379163
-0.9205,1.4789041606628908,1.4817933711379163
-0.92025,1.4789041606628908,1.4821260423469316
-0.92,1.4789041606628908,1.4821260423469316
-0.91975,1.4785654829407902,1.4821260423469316
-0.9195,1.4789041606628908,1.4824587135559468
-0.91925,1.4789041606628908,1.4824587135559468
-0.919,1.4789041606628908,1.482791384764962
-0.91875,1.4789041606628908,1.482791384764962
-0.9185,1.4789041606628908,1.4831240559739773
-0.91825,1.4789041606628908,1.4831240559739773
-0.918,1.4789041606628908,1.4831240559739773
-0.91775,1.4789041606628908,1.4831240559739773
-0.9175,1.4789041606628908,1.4831240559739773
-0.91725,1.4792428383849916,1.4834567271829926
-0.917,1.4789041606628908,1.4834567271829926
-0.91675,1.4789041606628908,1.4831240559739773
-0.9165,1.4792428383849916,1.4834567271829926
-0.91625,1.4792428383849916,1.4831240559739773
-0.916,1.4792428383849916,1.4831240559739773
-0.91575,1.4792428383849916,1.4831240559739773
-0.9155,1.4792428383849916,1.4831240559739773
-0.91525,1.4792428383849916,1.482791384764962
-0.915,1.4792428383849916,1.482791384764962
-0.91475,1.4792428383849916,1.4824587135559468
-0.9145,1.4792428383849916,1.4824587135559468
-0.91425,1.4792428383849916,1.4821260423469316
-0.914,1.4792428383849916,1.4817933711379163
-0.91375,1.4792428383849916,1.4817933711379163
-0.9135,1.4789041606628908,1.481460699928901
-0.91325,1.4789041606628908,1.4811280287198858
-0.913,1.4785654829407902,1.4811280287198858
-0.91275,1.4785654829407902,1.4807953575108705
-0.9125,1.4785654829407902,1.4804626863018553
-0.91225,1.4785654829407902,1.48013001509284
-0.912,1.4782268052186893,1.4797973438838248
-0.91175,1.4782268052186893,1.4797973438838248
-0.9115,1.4778881274965885,1.4794646726748095
-0.91125,1.4778881274965885,1.4791320014657943
-0.911,1.4778881274965885,1.4791320014657943
-0.91075,1.4775494497744877,1.4787993302567792
-0.9105,1.4775494497744877,1.478466659047764
-0.91025,1.4775494497744877,1.4781339878387487
-0.91,1.476872094330286,1.4781339878387487
-0.90975,1.4772107720523868,1.4778013166297335
-0.9095,1.476872094330286,1.4778013166297335
-0.90925,1.4765334166081852,1.4778013166297335
-0.909,1.4765334166081852,1.4774686454207182
-0.90875,1.4761947388860843,1.4774686454207182
-0.9085,1.4761947388860843,1.4774686454207182
-0.90825,1.4758560611639835,1.477135974211703
-0.908,1.4758560611639835,1.477135974211703
-0.90775,1.4755173834418827,1.477135974211703
-0.9075,1.4755173834418827,1.477135974211703
-0.90725,1.4755173834418827,1.4768033030026877
-0.907,1.4755173834418827,1.4768033030026877
-0.90675,1.4751787057197818,1.4768033030026877
-0.9065,1.4755173834418827,1.477135974211703
-0.90625,1.4755173834418827,1.477135974211703
-0.906,1.4755173834418827,1.477135974211703
-0.90575,1.4755173834418827,1.477135974211703
-0.9055,1.4755173834418827,1.4774686454207182
-0.90525,1.4758560611639835,1.4774686454207182
-0.905,1.4758560611639835,1.4774686454207182
-0.90475,1.4758560611639835,1.4774686454207182
-0.9045,1.4761947388860843,1.4778013166297335
-0.90425,1.4761947388860843,1.4778013166297335
-0.904,1.476872094330286,1.4781339878387487
-0.90375,1.4765334166081852,1.478466659047764
-0.9035,1.476872094330286,1.478466659047764
-0.90325,1.4772107720523868,1.4787993302567792
-0.903,1.4775494497744877,1.4787993302567792
-0.90275,1.4775494497744877,1.4794646726748095
-0.9025,1.4785654829407902,1.4794646726748095
-0.90225,1.4789041606628908,1.4797973438838248
-0.902,1.4789041606628908,1.48013001509284
-0.90175,1.4789041606628908,1.48013001509284
-0.9015,1.4792428383849916,1.48013001509284
-0.90125,1.4792428383849916,1.4804626863018553
-0.901,1.4795815161070924,1.4807953575108705
-0.90075,1.4799201938291933,1.4807953575108705
-0.9005,1.4799201938291933,1.4811280287198858
-0.90025,1.4799201938291933,1.481460699928901
-0.9,1.4799201938291933,1.481460699928901
-0.89975,1.480258871551294,1.4817933711379163
-0.8995,1.480258871551294,1.4817933711379163
-0.89925,1.480258871551294,1.4821260423469316
-0.899,1.480597549273395,1.4821260423469316
-0.89875,1.480597549273395,1.4821260423469316
-0.8985,1.480597549273395,1.4824587135559468
-0.89825,1.4809362269954958,1.4824587135559468
-0.898,1.4809362269954958,1.4824587135559468
-0.89775,1.480597549273395,1.4824587135559468
-0.8975,1.480597549273395,1.4824587135559468
-0.89725,1.4809362269954958,1.482791384764962
-0.897,1.4809362269954958,1.482791384764962
-0.89675,1.4809362269954958,1.482791384764962
-0.8965,1.4809362269954958,1.482791384764962
-0.89625,1.4809362269954958,1.482791384764962
-0.896,1.4809362269954958,1.4824587135559468
-0.89575,1.4809362269954958,1.4824587135559468
-0.8955,1.480597549273395,1.4824587135559468
-0.89525,1.480597549273395,1.4824587135559468
-0.895,1.480258871551294,1.4821260423469316
-0.89475,1.480258871551294,1.4821260423469316
-0.8945,1.480258871551294,1.4821260423469316
-0.89425,1.4799201938291933,1.4817933711379163
-0.894,1.4799201938291933,1.4817933711379163
-0.89375,1.4799201938291933,1.481460699928901
-0.8935,1.4795815161070924,1.4811280287198858
-0.89325,1.4795815161070924,1.4807953575108705
-0.893,1.4792428383849916,1.4807953575108705
-0.89275,1.4792428383849916,1.4804626863018553
-0.8925,1.4789041606628908,1.4804626863018553
-0.89225,1.4789041606628908,1.48013001509284
-0.892,1.4789041606628908,1.48013001509284
-0.89175,1.4785654829407902,1.4797973438838248
-0.8915,1.4785654829407902,1.4797973438838248
-0.89125,1.4785654829407902,1.4794646726748095
-0.891,1.4785654829407902,1.4791320014657943
-0.89075,1.4785654829407902,1.4791320014657943
-0.8905,1.4782268052186893,1.4787993302567792
-0.89025,1.4785654829407902,1.478466659047764
-0.89,1.4785654829407902,1.478466659047764
-0.88975,1.4785654829407902,1.4781339878387487
-0.8895,1.4785654829407902,1.4781339878387487
-0.88925,1.4785654829407902,1.4781339878387487
-0.889,1.4785654829407902,1.4774686454207182
-0.88875,1.4785654829407902,1.4774686454207182
-0.8885,1.4785654829407902,1.477135974211703
-0.88825,1.4785654829407902,1.477135974211703
-0.888,1.4785654829407902,1.477135974211703
-0.88775,1.4785654829407902,1.477135974211703
-0.8875,1.4785654829407902,1.477135974211703
-0.88725,1.4789041606628908,1.477135974211703
-0.887,1.4789041606628908,1.477135974211703
-0.88675,1.4785654829407902,1.477135974211703
-0.8865,1.4789041606628908,1.477135974211703
-0.88625,1.4785654829407902,1.477135974211703
-0.886,1.4785654829407902,1.477135974211703
-0.88575,1.4785654829407902,1.477135974211703
-0.8855,1.4789041606628908,1.477135974211703
-0.88525,1.4789041606628908,1.477135974211703
-0.885,1.4789041606628908,1.4774686454207182
-0.88475,1.4789041606628908,1.4774686454207182
-0.8845,1.4789041606628908,1.4774686454207182
-0.88425,1.4789041606628908,1.4778013166297335
-0.884,1.4795815161070924,1.4781339878387487
-0.88375,1.4792428383849916,1.4781339878387487
-0.8835,1.4795815161070924,1.4781339878387487
-0.88325,1.4795815161070924,1.478466659047764
-0.883,1.4795815161070924,1.4787993302567792
-0.88275,1.4799201938291933,1.4787993302567792
-0.8825,1.4799201938291933,1.4791320014657943
-0.88225,1.4799201938291933,1.4794646726748095
-0.882,1.480258871551294,1.4794646726748095
-0.88175,1.480258871551294,1.4794646726748095
-0.8815,1.480258871551294,1.4797973438838248
-0.88125,1.480597549273395,1.48013001509284
-0.881,1.480597549273395,1.4804626863018553
-0.88075,1.4809362269954958,1.4807953575108705
-0.8805,1.4809362269954958,1.4807953575108705
-0.88025,1.4809362269954958,1.4811280287198858
-0.88,1.4809362269954958,1.481460699928901
-0.87975,1.4812749047175966,1.481460699928901
-0.8795,1.4812749047175966,1.481460699928901
-0.87925,1.4816135824396974,1.4817933711379163
-0.879,1.4816135824396974,1.4817933711379163
-0.87875,1.4816135824396974,1.4821260423469316
-0.8785,1.4819522601617983,1.4821260423469316
-0.87825,1.4819522601617983,1.4824587135559468
-0.878,1.482290937883899,1.4824587135559468
-0.87775,1.4819522601617983,1.4824587135559468
-0.8775,1.4819522601617983,1.4824587135559468
-0.87725,1.482290937883899,1.4824587135559468
-0.877,1.482290937883899,1.4824587135559468
-0.87675,1.482290937883899,1.4824587135559468
-0.8765,1.482290937883899,1.4824587135559468
-0.87625,1.482290937883899,1.4824587135559468
-0.876,1.482629615606,1.4824587135559468
-0.87575,1.482290937883899,1.4821260423469316
-0.8755,1.4819522601617983,1.4821260423469316
-0.87525,1.4819522601617983,1.4817933711379163
-0.875,1.4816135824396974,1.4817933711379163
-0.87475,1.4816135824396974,1.4817933711379163
-0.8745,1.4812749047175966,1.481460699928901
-0.87425,1.4809362269954958,1.481460699928901
-0.874,1.480597549273395,1.4811280287198858
-0.87375,1.480258871551294,1.4811280287198858
-0.8735,1.480258871551294,1.4807953575108705
-0.87325,1.4799201938291933,1.4804626863018553
-0.873,1.4799201938291933,1.4804626863018553
-0.87275,1.4795815161070924,1.48013001509284
-0.8725,1.4792428383849916,1.48013001509284
-0.87225,1.4789041606628908,1.48013001509284
-0.872,1.4789041606628908,1.4797973438838248
-0.87175,1.4785654829407902,1.4794646726748095
-0.8715,1.4785654829407902,1.4794646726748095
-0.87125,1.4782268052186893,1.4791320014657943
-0.871,1.4782268052186893,1.4791320014657943
-0.87075,1.4782268052186893,1.4791320014657943
-0.8705,1.4778881274965885,1.478466659047764
-0.87025,1.4778881274965885,1.4778013166297335
-0.87,1.4775494497744877,1.4778013166297335
-0.86975,1.4775494497744877,1.4781339878387487
-0.8695,1.4772107720523868,1.4778013166297335
-0.86925,1.4772107720523868,1.4778013166297335
-0.869,1.476872094330286,1.4774686454207182
-0.86875,1.476872094330286,1.4774686454207182
-0.8685,1.476872094330286,1.4774686454207182
-0.86825,1.476872094330286,1.477135974211703
-0.868,1.4765334166081852,1.477135974211703
-0.86775,1.476872094330286,1.477135974211703
-0.8675,1.476872094330286,1.477135974211703
-0.86725,1.4765334166081852,1.477135974211703
-0.867,1.476872094330286,1.4768033030026877
-0.86675,1.476872094330286,1.477135974211703
-0.8665,1.476872094330286,1.477135974211703
-0.86625,1.476872094330286,1.477135974211703
-0.866,1.476872094330286,1.4774686454207182
-0.86575,1.476872094330286,1.4774686454207182
-0.8655,1.4772107720523868,1.4774686454207182
-0.86525,1.4772107720523868,1.4778013166297335
-0.865,1.4772107720523868,1.4778013166297335
-0.86475,1.4772107720523868,1.4781339878387487
-0.8645,1.4775494497744877,1.4781339878387487
-0.86425,1.4775494497744877,1.478466659047764
-0.864,1.4775494497744877,1.478466659047764
-0.86375,1.4778881274965885,1.4787993302567792
-0.8635,1.4778881274965885,1.4791320014657943
-0.86325,1.4778881274965885,1.4791320014657943
-0.863,1.4782268052186893,1.4791320014657943
-0.86275,1.4782268052186893,1.4794646726748095
-0.8625,1.4785654829407902,1.4794646726748095
-0.86225,1.4789041606628908,1.4797973438838248
-0.862,1.4792428383849916,1.4797973438838248
-0.86175,1.4792428383849916,1.48013001509284
-0.8615,1.4789041606628908,1.48013001509284
-0.86125,1.4792428383849916,1.4807953575108705
-0.861,1.4792428383849916,1.4807953575108705
-0.86075,1.4795815161070924,1.4811280287198858
-0.8605,1.4795815161070924,1.4811280287198858
-0.86025,1.4799201938291933,1.481460699928901
-0.86,1.480258871551294,1.4817933711379163
-0.85975,1.4799201938291933,1.4817933711379163
-0.8595,1.480258871551294,1.4817933711379163
-0.85925,1.480258871551294,1.4821260423469316
-0.859,1.480258871551294,1.4821260423469316
-0.85875,1.480258871551294,1.4824587135559468
-0.8585,1.480258871551294,1.4824587135559468
-0.85825,1.480258871551294,1.4824587135559468
-0.858,1.480258871551294,1.4824587135559468
-0.85775,1.480258871551294,1.4824587135559468
-0.8575,1.480258871551294,1.482791384764962
-0.85725,1.480258871551294,1.482791384764962
-0.857,1.480258871551294,1.482791384764962
-0.85675,1.480258871551294,1.482791384764962
-0.8565,1.4799201938291933,1.482791384764962
-0.85625,1.4799201938291933,1.4824587135559468
-0.856,1.4799201938291933,1.4824587135559468
-0.85575,1.4799201938291933,1.4824587135559468
-0.8555,1.4799201938291933,1.4821260423469316
-0.85525,1.4799201938291933,1.4817933711379163
-0.855,1.4795815161070924,1.4817933711379163
-0.85475,1.4795815161070924,1.4817933711379163
-0.8545,1.4795815161070924,1.4817933711379163
-0.85425,1.4792428383849916,1.481460699928901
-0.854,1.4792428383849916,1.481460699928901
-0.85375,1.4789041606628908,1.4811280287198858
-0.8535,1.4785654829407902,1.4811280287198858
-0.85325,1.4785654829407902,1.4807953575108705
-0.853,1.4782268052186893,1.4807953575108705
-0.85275,1.4782268052186893,1.4804626863018553
-0.8525,1.4778881274965885,1.48013001509284
-0.85225,1.4775494497744877,1.4797973438838248
-0.852,1.4772107720523868,1.4797973438838248
-0.85175,1.476872094330286,1.4794646726748095
-0.8515,1.4765334166081852,1.4794646726748095
-0.85125,1.4765334166081852,1.4791320014657943
-0.851,1.4761947388860843,1.4791320014657943
-0.85075,1.4758560611639835,1.4787993302567792
-0.8505,1.4755173834418827,1.478466659047764
-0.85025,1.4751787057197818,1.4781339878387487
-0.85,1.474840027997681,1.4778013166297335
-0.84975,1.474840027997681,1.4778013166297335
-0.8495,1.474840027997681,1.4778013166297335
-0.84925,1.474840027997681,1.4774686454207182
-0.849,1.4745013502755802,1.4774686454207182
-0.84875,1.4745013502755802,1.477135974211703
-0.8485,1.4745013502755802,1.477135974211703
-0.84825,1.4741626725534793,1.477135974211703
-0.848,1.4741626725534793,1.477135974211703
-0.84775,1.4738239948313785,1.477135974211703
-0.8475,1.4738239948313785,1.477135974211703
-0.84725,1.4738239948313785,1.477135974211703
-0.847,1.4738239948313785,1.4768033030026877
-0.84675,1.4734853171092777,1.4768033030026877
-0.8465,1.4734853171092777,1.4768033030026877
-0.84625,1.4734853171092777,1.477135974211703
-0.846,1.4734853171092777,1.477135974211703
-0.84575,1.4734853171092777,1.477135974211703
-0.8455,1.4734853171092777,1.477135974211703
-0.84525,1.4734853171092777,1.477135974211703
-0.845,1.4734853171092777,1.4774686454207182
-0.84475,1.4738239948313785,1.4778013166297335
-0.8445,1.4738239948313785,1.4774686454207182
-0.84425,1.4734853171092777,1.4778013166297335
-0.844,1.4738239948313785,1.4781339878387487
-0.84375,1.4741626725534793,1.478466659047764
-0.8435,1.4741626725534793,1.4787993302567792
-0.84325,1.4745013502755802,1.4787993302567792
-0.843,1.474840027997681,1.4791320014657943
-0.84275,1.474840027997681,1.4791320014657943
-0.8425,1.474840027997681,1.4794646726748095
-0.84225,1.4751787057197818,1.4794646726748095
-0.842,1.4751787057197818,1.4797973438838248
-0.84175,1.4755173834418827,1.4797973438838248
-0.8415,1.4755173834418827,1.48013001509284
-0.84125,1.4758560611639835,1.4804626863018553
-0.841,1.4758560611639835,1.4804626863018553
-0.84075,1.4761947388860843,1.4807953575108705
-0.8405,1.4765334166081852,1.4811280287198858
-0.84025,1.4765334166081852,1.4811280287198858
-0.84,1.476872094330286,1.4811280287198858
-0.83975,1.4772107720523868,1.481460699928901
-0.8395,1.4772107720523868,1.481460699928901
-0.83925,1.4772107720523868,1.481460699928901
-0.839,1.4772107720523868,1.4817933711379163
-0.83875,1.4775494497744877,1.4817933711379163
-0.8385,1.4775494497744877,1.4821260423469316
-0.83825,1.4775494497744877,1.4821260423469316
-0.838,1.4778881274965885,1.4821260423469316
-0.83775,1.4778881274965885,1.4821260423469316
-0.8375,1.4782268052186893,1.4821260423469316
-0.83725,1.4778881274965885,1.4821260423469316
-0.837,1.4782268052186893,1.4824587135559468
-0.83675,1.4782268052186893,1.4821260423469316
-0.8365,1.4782268052186893,1.4821260423469316
-0.83625,1.4782268052186893,1.4821260423469316
-0.836,1.4778881274965885,1.4821260423469316
-0.83575,1.4778881274965885,1.4821260423469316
-0.8355,1.4775494497744877,1.4817933711379163
-0.83525,1.4775494497744877,1.4817933711379163
-0.835,1.4775494497744877,1.481460699928901
-0.83475,1.4772107720523868,1.481460699928901
-0.8345,1.476872094330286,1.481460699928901
-0.83425,1.4765334166081852,1.4811280287198858
-0.834,1.4765334166081852,1.4811280287198858
-0.83375,1.4758560611639835,1.4807953575108705
-0.8335,1.4758560611639835,1.4807953575108705
-0.83325,1.4751787057197818,1.4804626863018553
-0.833,1.474840027997681,1.48013001509284
-0.83275,1.474840027997681,1.4797973438838248
-0.8325,1.4745013502755802,1.4797973438838248
-0.83225,1.4741626725534793,1.4794646726748095
-0.832,1.4738239948313785,1.4791320014657943
-0.83175,1.4734853171092777,1.4791320014657943
-0.8315,1.4734853171092777,1.4791320014657943
-0.83125,1.4731466393871768,1.4787993302567792
-0.831,1.4731466393871768,1.4787993302567792
-0.83075,1.472807961665076,1.4787993302567792
-0.8305,1.4731466393871768,1.478466659047764
-0.83025,1.4731466393871768,1.4781339878387487
-0.83,1.472807961665076,1.4781339878387487
-0.82975,1.4731466393871768,1.4778013166297335
-0.8295,1.4731466393871768,1.4778013166297335
-0.82925,1.4734853171092777,1.4781339878387487
-0.829,1.4734853171092777,1.4778013166297335
-0.82875,1.4738239948313785,1.4778013166297335
-0.8285,1.4741626725534793,1.4778013166297335
-0.82825,1.4745013502755802,1.4774686454207182
-0.828,1.4745013502755802,1.4774686454207182
-0.82775,1.4751787057197818,1.4774686454207182
-0.8275,1.4755173834418827,1.4774686454207182
-0.82725,1.4758560611639835,1.477135974211703
-0.827,1.4761947388860843,1.477135974211703
-0.82675,1.4765334166081852,1.477135974211703
-0.8265,1.476872094330286,1.4774686454207182
-0.82625,1.476872094330286,1.477135974211703
-0.826,1.4772107720523868,1.4774686454207182
-0.82575,1.4775494497744877,1.4774686454207182
-0.8255,1.4775494497744877,1.4774686454207182
-0.82525,1.4782268052186893,1.4778013166297335
-0.825,1.4782268052186893,1.4778013166297335
-0.82475,1.4785654829407902,1.4778013166297335
-0.8245,1.4789041606628908,1.4778013166297335
-0.82425,1.4792428383849916,1.4781339878387487
-0.824,1.4795815161070924,1.478466659047764
-0.82375,1.4795815161070924,1.478466659047764
-0.8235,1.4799201938291933,1.478466659047764
-0.82325,1.480258871551294,1.4787993302567792
-0.823,1.480258871551294,1.4791320014657943
-0.82275,1.480258871551294,1.4791320014657943
-0.8225,1.480258871551294,1.4791320014657943
-0.82225,1.480258871551294,1.4797973438838248
-0.822,1.480597549273395,1.4797973438838248
-0.82175,1.480258871551294,1.48013001509284
-0.8215,1.480597549273395,1.48013001509284
-0.82125,1.480597549273395,1.48013001509284
-0.821,1.480597549273395,1.4804626863018553
-0.82075,1.4809362269954958,1.4804626863018553
-0.8205,1.4809362269954958,1.4804626863018553
-0.82025,1.4809362269954958,1.4807953575108705
-0.82,1.4809362269954958,1.4807953575108705
-0.81975,1.4812749047175966,1.4811280287198858
-0.8195,1.4809362269954958,1.4811280287198858
-0.81925,1.4812749047175966,1.4811280287198858
-0.819,1.4812749047175966,1.481460699928901
-0.81875,1.4812749047175966,1.481460699928901
-0.8185,1.4812749047175966,1.4817933711379163
-0.81825,1.4812749047175966,1.4817933711379163
-0.818,1.4816135824396974,1.4817933711379163
-0.81775,1.4816135824396974,1.4817933711379163
-0.8175,1.4816135824396974,1.4817933711379163
-0.81725,1.4812749047175966,1.4817933711379163
-0.817,1.4812749047175966,1.4817933711379163
-0.81675,1.4812749047175966,1.4817933711379163
-0.8165,1.4812749047175966,1.4817933711379163
-0.81625,1.4812749047175966,1.4817933711379163
-0.816,1.4812749047175966,1.481460699928901
-0.81575,1.4812749047175966,1.4817933711379163
-0.8155,1.4809362269954958,1.481460699928901
-0.81525,1.4809362269954958,1.481460699928901
-0.815,1.4809362269954958,1.4811280287198858
-0.81475,1.480597549273395,1.4811280287198858
-0.8145,1.480258871551294,1.4807953575108705
-0.81425,1.480258871551294,1.4807953575108705
-0.814,1.480258871551294,1.4804626863018553
-0.81375,1.4799201938291933,1.4804626863018553
-0.8135,1.4799201938291933,1.48013001509284
-0.81325,1.4799201938291933,1.48013001509284
-0.813,1.4795815161070924,1.4797973438838248
-0.81275,1.4792428383849916,1.4794646726748095
-0.8125,1.4792428383849916,1.4794646726748095
-0.81225,1.4792428383849916,1.4791320014657943
-0.812,1.4789041606628908,1.4787993302567792
-0.81175,1.4789041606628908,1.478466659047764
-0.8115,1.4785654829407902,1.4781339878387487
-0.81125,1.4782268052186893,1.4781339878387487
-0.811,1.4782268052186893,1.4778013166297335
-0.81075,1.4782268052186893,1.4778013166297335
-0.8105,1.4778881274965885,1.4774686454207182
-0.81025,1.4778881274965885,1.477135974211703
-0.81,1.4778881274965885,1.4768033030026877
-0.80975,1.4778881274965885,1.4768033030026877
-0.8095,1.4775494497744877,1.4768033030026877
-0.80925,1.4775494497744877,1.4764706317936724
-0.809,1.4775494497744877,1.4764706317936724
-0.80875,1.4772107720523868,1.4761379605846572
-0.8085,1.4772107720523868,1.4761379605846572
-0.80825,1.4772107720523868,1.475805289375642
-0.808,1.476872094330286,1.475805289375642
-0.80775,1.4772107720523868,1.475805289375642
-0.8075,1.4772107720523868,1.475805289375642
-0.80725,1.4772107720523868,1.475805289375642
-0.807,1.4772107720523868,1.475805289375642
-0.80675,1.4772107720523868,1.475805289375642
-0.8065,1.4775494497744877,1.475805289375642
-0.80625,1.4775494497744877,1.475805289375642
-0.806,1.4775494497744877,1.4761379605846572
-0.80575,1.4775494497744877,1.4761379605846572
-0.8055,1.4775494497744877,1.4764706317936724
-0.80525,1.4775494497744877,1.4764706317936724
-0.805,1.4778881274965885,1.4764706317936724
-0.80475,1.4782268052186893,1.4768033030026877
-0.8045,1.4782268052186893,1.4768033030026877
-0.80425,1.4782268052186893,1.4768033030026877
-0.804,1.4782268052186893,1.477135974211703
-0.80375,1.4785654829407902,1.4774686454207182
-0.8035,1.4785654829407902,1.4774686454207182
-0.80325,1.4785654829407902,1.4778013166297335
-0.803,1.4785654829407902,1.4778013166297335
-0.80275,1.4789041606628908,1.4781339878387487
-0.8025,1.4792428383849916,1.478466659047764
-0.80225,1.4795815161070924,1.4787993302567792
-0.802,1.4799201938291933,1.4791320014657943
-0.80175,1.4795815161070924,1.4791320014657943
-0.8015,1.4795815161070924,1.4791320014657943
-0.80125,1.4799201938291933,1.4794646726748095
-0.801,1.4799201938291933,1.4797973438838248
-0.80075,1.480258871551294,1.4797973438838248
-0.8005,1.480258871551294,1.48013001509284
-0.80025,1.480258871551294,1.48013001509284
-0.8,1.480597549273395,1.4804626863018553
-0.79975,1.480597549273395,1.4807953575108705
-0.7995,1.480597549273395,1.4807953575108705
-0.79925,1.480597549273395,1.4807953575108705
-0.799,1.480597549273395,1.4811280287198858
-0.79875,1.480597549273395,1.481460699928901
-0.7985,1.480597549273395,1.481460699928901
-0.79825,1.480597549273395,1.481460699928901
-0.798,1.4809362269954958,1.481460699928901
-0.79775,1.480597549273395,1.481460699928901
-0.7975,1.480597549273395,1.481460699928901
-0.79725,1.4809362269954958,1.481460699928901
-0.797,1.480597549273395,1.481460699928901
-0.79675,1.480597549273395,1.481460699928901
-0.7965,1.480597549273395,1.481460699928901
-0.79625,1.480258871551294,1.481460699928901
-0.796,1.480597549273395,1.481460699928901
-0.79575,1.480258871551294,1.4811280287198858
-0.7955,1.4799201938291933,1.4811280287198858
-0.79525,1.4799201938291933,1.4807953575108705
-0.795,1.4795815161070924,1.4807953575108705
-0.79475,1.4795815161070924,1.4804626863018553
-0.7945,1.4792428383849916,1.4804626863018553
-0.79425,1.4792428383849916,1.4804626863018553
-0.794,1.4789041606628908,1.48013001509284
-0.79375,1.4789041606628908,1.48013001509284
-0.7935,1.4785654829407902,1.4797973438838248
-0.79325,1.4785654829407902,1.4794646726748095
-0.793,1.4785654829407902,1.4794646726748095
-0.79275,1.4782268052186893,1.4791320014657943
-0.7925,1.4778881274965885,1.4787993302567792
-0.79225,1.4778881274965885,1.478466659047764
-0.792,1.4775494497744877,1.478466659047764
-0.79175,1.4775494497744877,1.4781339878387487
-0.7915,1.4775494497744877,1.4781339878387487
-0.79125,1.4772107720523868,1.4778013166297335
-0.791,1.4772107720523868,1.4774686454207182
-0.79075,1.476872094330286,1.477135974211703
-0.7905,1.4772107720523868,1.477135974211703
-0.79025,1.476872094330286,1.4768033030026877
-0.79,1.476872094330286,1.4764706317936724
-0.78975,1.4765334166081852,1.4764706317936724
-0.7895,1.4765334166081852,1.4764706317936724
-0.78925,1.4765334166081852,1.4761379605846572
-0.789,1.4761947388860843,1.475805289375642
-0.78875,1.4761947388860843,1.475805289375642
-0.7885,1.4761947388860843,1.475805289375642
-0.78825,1.4761947388860843,1.475805289375642
-0.788,1.4761947388860843,1.4754726181666267
-0.78775,1.4761947388860843,1.4754726181666267
-0.7875,1.4761947388860843,1.4754726181666267
-0.78725,1.4765334166081852,1.4754726181666267
-0.787,1.4765334166081852,1.4754726181666267
-0.78675,1.4761947388860843,1.4751399469576114
-0.7865,1.4765334166081852,1.4754726181666267
-0.78625,1.4765334166081852,1.4754726181666267
-0.786,1.4765334166081852,1.4754726181666267
-0.78575,1.476872094330286,1.4754726181666267
-0.7855,1.4765334166081852,1.4754726181666267
-0.78525,1.476872094330286,1.475805289375642
-0.785,1.476872094330286,1.475805289375642
-0.78475,1.4772107720523868,1.475805289375642
-0.7845,1.4772107720523868,1.4761379605846572
-0.78425,1.4772107720523868,1.4764706317936724
-0.784,1.4772107720523868,1.4764706317936724
-0.78375,1.4775494497744877,1.4768033030026877
-0.7835,1.4775494497744877,1.4768033030026877
-0.78325,1.4778881274965885,1.477135974211703
-0.783,1.4778881274965885,1.4774686454207182
-0.78275,1.4782268052186893,1.4774686454207182
-0.7825,1.4778881274965885,1.4778013166297335
-0.78225,1.4782268052186893,1.4778013166297335
-0.782,1.4782268052186893,1.478466659047764
-0.78175,1.4785654829407902,1.4781339878387487
-0.7815,1.4785654829407902,1.478466659047764
-0.78125,1.4785654829407902,1.4787993302567792
-0.781,1.4785654829407902,1.4791320014657943
-0.78075,1.4789041606628908,1.4791320014657943
-0.7805,1.4789041606628908,1.4791320014657943
-0.78025,1.4789041606628908,1.4797973438838248
-0.78,1.4789041606628908,1.4797973438838248
-0.77975,1.4789041606628908,1.4797973438838248
-0.7795,1.4792428383849916,1.48013001509284
-0.77925,1.4792428383849916,1.48013001509284
-0.779,1.4795815161070924,1.48013001509284
-0.77875,1.4799201938291933,1.4804626863018553
-0.7785,1.4799201938291933,1.4804626863018553
-0.77825,1.4799201938291933,1.4804626863018553
-0.778,1.480258871551294,1.4807953575108705
-0.77775,1.480258871551294,1.4804626863018553
-0.7775,1.480258871551294,1.4807953575108705
-0.77725,1.480258871551294,1.4807953575108705
-0.777,1.4799201938291933,1.4807953575108705
-0.77675,1.480258871551294,1.4807953575108705
-0.7765,1.480258871551294,1.4807953575108705
-0.77625,1.480258871551294,1.4804626863018553
-0.776,1.4799201938291933,1.4804626863018553
-0.77575,1.4799201938291933,1.4804626863018553
-0.7755,1.4799201938291933,1.4804626863018553
-0.77525,1.4795815161070924,1.48013001509284
-0.775,1.4795815161070924,1.4797973438838248
-0.77475,1.4792428383849916,1.4797973438838248
-0.7745,1.4789041606628908,1.4794646726748095
-0.77425,1.4789041606628908,1.4794646726748095
-0.774,1.4785654829407902,1.4791320014657943
-0.77375,1.4782268052186893,1.4787993302567792
-0.7735,1.4782268052186893,1.4787993302567792
-0.77325,1.4782268052186893,1.478466659047764
-0.773,1.4778881274965885,1.478466659047764
-0.77275,1.4778881274965885,1.4781339878387487
-0.7725,1.4775494497744877,1.4781339878387487
-0.77225,1.4775494497744877,1.4778013166297335
-0.772,1.4772107720523868,1.4774686454207182
-0.77175,1.4772107720523868,1.477135974211703
-0.7715,1.476872094330286,1.477135974211703
-0.77125,1.476872094330286,1.4768033030026877
-0.771,1.4765334166081852,1.4764706317936724
-0.77075,1.476872094330286,1.4764706317936724
-0.7705,1.476872094330286,1.4761379605846572
-0.77025,1.4765334166081852,1.475805289375642
-0.77,1.4765334166081852,1.475805289375642
-0.76975,1.4765334166081852,1.4754726181666267
-0.7695,1.4765334166081852,1.4754726181666267
-0.76925,1.4761947388860843,1.4751399469576114
-0.769,1.4761947388860843,1.4751399469576114
-0.76875,1.4761947388860843,1.4748072757485962
-0.7685,1.4761947388860843,1.4748072757485962
-0.76825,1.4761947388860843,1.474474604539581
-0.768,1.4761947388860843,1.474474604539581
-0.76775,1.4761947388860843,1.474474604539581
-0.7675,1.4761947388860843,1.474474604539581
-0.76725,1.4758560611639835,1.4741419333305656
-0.767,1.4758560611639835,1.4741419333305656
-0.76675,1.4758560611639835,1.4741419333305656
-0.7665,1.4758560611639835,1.4741419333305656
-0.76625,1.4758560611639835,1.4741419333305656
-0.766,1.4758560611639835,1.4741419333305656
-0.76575,1.4758560611639835,1.474474604539581
-0.7655,1.4758560611639835,1.474474604539581
-0.76525,1.4758560611639835,1.474474604539581
-0.765,1.4758560611639835,1.4748072757485962
-0.76475,1.4758560611639835,1.4748072757485962
-0.7645,1.4758560611639835,1.4751399469576114
-0.76425,1.4758560611639835,1.4754726181666267
-0.764,1.4761947388860843,1.4754726181666267
-0.76375,1.4761947388860843,1.475805289375642
-0.7635,1.4761947388860843,1.475805289375642
-0.76325,1.4765334166081852,1.4761379605846572
-0.763,1.4765334166081852,1.4764706317936724
-0.76275,1.476872094330286,1.4768033030026877
-0.7625,1.476872094330286,1.4768033030026877
-0.76225,1.4772107720523868,1.477135974211703
-0.762,1.4772107720523868,1.477135974211703
-0.76175,1.4775494497744877,1.4774686454207182
-0.7615,1.4775494497744877,1.4778013166297335
-0.76125,1.4778881274965885,1.4781339878387487
-0.761,1.4782268052186893,1.4781339878387487
-0.76075,1.4782268052186893,1.478466659047764
-0.7605,1.4785654829407902,1.4787993302567792
-0.76025,1.4789041606628908,1.4787993302567792
-0.76,1.4792428383849916,1.4787993302567792
-0.75975,1.4795815161070924,1.4791320014657943
-0.7595,1.4795815161070924,1.4791320014657943
-0.75925,1.4799201938291933,1.4794646726748095
-0.759,1.4799201938291933,1.4794646726748095
-0.75875,1.4799201938291933,1.4797973438838248
-0.7585,1.480258871551294,1.4797973438838248
-0.75825,1.480258871551294,1.48013001509284
-0.758,1.480597549273395,1.48013001509284
-0.75775,1.480597549273395,1.48013001509284
-0.7575,1.480258871551294,1.48013001509284
-0.75725,1.480597549273395,1.48013001509284
-0.757,1.480597549273395,1.48013001509284
-0.75675,1.480597549273395,1.4804626863018553
-0.7565,1.480258871551294,1.48013001509284
-0.75625,1.480258871551294,1.48013001509284
-0.756,1.480258871551294,1.48013001509284
-0.75575,1.480258871551294,1.48013001509284
-0.7555,1.4799201938291933,1.4797973438838248
-0.75525,1.4799201938291933,1.4794646726748095
-0.755,1.4795815161070924,1.4794646726748095
-0.75475,1.4795815161070924,1.4794646726748095
-0.7545,1.4795815161070924,1.4791320014657943
-0.75425,1.4792428383849916,1.4791320014657943
-0.754,1.4792428383849916,1.4787993302567792
-0.75375,1.4792428383849916,1.4787993302567792
-0.7535,1.4789041606628908,1.478466659047764
-0.75325,1.4789041606628908,1.478466659047764
-0.753,1.4785654829407902,1.4781339878387487
-0.75275,1.4782268052186893,1.4778013166297335
-0.7525,1.4782268052186893,1.4778013166297335
-0.75225,1.4782268052186893,1.4774686454207182
-0.752,1.4778881274965885,1.477135974211703
-0.75175,1.4778881274965885,1.477135974211703
-0.7515,1.4778881274965885,1.4768033030026877
-0.75125,1.4775494497744877,1.4764706317936724
-0.751,1.4775494497744877,1.4764706317936724
-0.75075,1.4772107720523868,1.4761379605846572
-0.7505,1.476872094330286,1.475805289375642
-0.75025,1.4772107720523868,1.475805289375642
-0.75,1.4765334166081852,1.475805289375642
-0.74975,1.4765334166081852,1.4754726181666267
-0.7495,1.4765334166081852,1.4751399469576114
-0.74925,1.4765334166081852,1.4751399469576114
-0.749,1.4765334166081852,1.4751399469576114
-0.74875,1.4765334166081852,1.4751399469576114
-0.7485,1.4761947388860843,1.4748072757485962
-0.74825,1.4761947388860843,1.4748072757485962
-0.748,1.4761947388860843,1.4748072757485962
-0.74775,1.4758560611639835,1.4748072757485962
-0.7475,1.4758560611639835,1.474474604539581
-0.74725,1.4758560611639835,1.474474604539581
-0.747,1.4761947388860843,1.474474604539581
-0.74675,1.4758560611639835,1.4748072757485962
-0.7465,1.4758560611639835,1.4748072757485962
-0.74625,1.4758560611639835,1.474474604539581
-0.746,1.4758560611639835,1.4748072757485962
-0.74575,1.4758560611639835,1.4748072757485962
-0.7455,1.4761947388860843,1.4748072757485962
-0.74525,1.4761947388860843,1.4751399469576114
-0.745,1.4761947388860843,1.4751399469576114
-0.74475,1.4761947388860843,1.4754726181666267
-0.7445,1.4765334166081852,1.4754726181666267
-0.74425,1.4761947388860843,1.475805289375642
-0.744,1.4765334166081852,1.475805289375642
-0.74375,1.4765334166081852,1.4761379605846572
-0.7435,1.476872094330286,1.4764706317936724
-0.74325,1.4765334166081852,1.4764706317936724
-0.743,1.476872094330286,1.4764706317936724
-0.74275,1.4772107720523868,1.4768033030026877
-0.7425,1.4772107720523868,1.477135974211703
-0.74225,1.4775494497744877,1.477135974211703
-0.742,1.4775494497744877,1.4774686454207182
-0.74175,1.4775494497744877,1.4778013166297335
-0.7415,1.4778881274965885,1.4778013166297335
-0.74125,1.4778881274965885,1.4781339878387487
-0.741,1.4782268052186893,1.478466659047764
-0.74075,1.4782268052186893,1.478466659047764
-0.7405,1.4785654829407902,1.4787993302567792
-0.74025,1.4789041606628908,1.4787993302567792
-0.74,1.4789041606628908,1.4791320014657943
-0.73975,1.4792428383849916,1.4791320014657943
-0.7395,1.4792428383849916,1.4794646726748095
-0.73925,1.4795815161070924,1.4794646726748095
-0.739,1.4795815161070924,1.4797973438838248
-0.73875,1.4795815161070924,1.4797973438838248
-0.7385,1.4799201938291933,1.4797973438838248
-0.73825,1.4795815161070924,1.4797973438838248
-0.738,1.4795815161070924,1.4797973438838248
-0.73775,1.4795815161070924,1.4797973438838248
-0.7375,1.4799201938291933,1.4797973438838248
-0.73725,1.4795815161070924,1.48013001509284
-0.737,1.4795815161070924,1.4797973438838248
-0.73675,1.4795815161070924,1.4797973438838248
-0.7365,1.4795815161070924,1.4797973438838248
-0.73625,1.4792428383849916,1.4797973438838248
-0.736,1.4792428383849916,1.4797973438838248
-0.73575,1.4789041606628908,1.4794646726748095
-0.7355,1.4789041606628908,1.4794646726748095
-0.73525,1.4785654829407902,1.4791320014657943
-0.735,1.4782268052186893,1.4791320014657943
-0.73475,1.4778881274965885,1.4787993302567792
-0.7345,1.4778881274965885,1.4791320014657943
-0.73425,1.4778881274965885,1.4787993302567792
-0.734,1.4778881274965885,1.478466659047764
-0.73375,1.4775494497744877,1.4781339878387487
-0.7335,1.4775494497744877,1.4781339878387487
-0.73325,1.4775494497744877,1.4778013166297335
-0.733,1.4772107720523868,1.4778013166297335
-0.73275,1.4772107720523868,1.4774686454207182
-0.7325,1.476872094330286,1.4774686454207182
-0.73225,1.476872094330286,1.477135974211703
-0.732,1.4765334166081852,1.4768033030026877
-0.73175,1.4765334166081852,1.477135974211703
-0.7315,1.4761947388860843,1.4768033030026877
-0.73125,1.4761947388860843,1.4768033030026877
-0.731,1.4761947388860843,1.4764706317936724
-0.73075,1.4761947388860843,1.4761379605846572
-0.7305,1.4761947388860843,1.475805289375642
-0.73025,1.4758560611639835,1.4754726181666267
-0.73,1.4758560611639835,1.4754726181666267
-0.72975,1.4758560611639835,1.4754726181666267
-0.7295,1.4758560611639835,1.4751399469576114
-0.72925,1.4761947388860843,1.4751399469576114
-0.729,1.4761947388860843,1.4751399469576114
-0.72875,1.4761947388860843,1.4748072757485962
-0.7285,1.4761947388860843,1.4748072757485962
-0.72825,1.4761947388860843,1.474474604539581
-0.728,1.4761947388860843,1.474474604539581
-0.72775,1.4761947388860843,1.474474604539581
-0.7275,1.4761947388860843,1.474474604539581
-0.72725,1.4761947388860843,1.474474604539581
-0.727,1.4761947388860843,1.474474604539581
-0.72675,1.4761947388860843,1.474474604539581
-0.7265,1.4765334166081852,1.474474604539581
-0.72625,1.4765334166081852,1.474474604539581
-0.726,1.4765334166081852,1.4748072757485962
-0.72575,1.476872094330286,1.4748072757485962
-0.7255,1.476872094330286,1.4748072757485962
-0.72525,1.476872094330286,1.4748072757485962
-0.725,1.4772107720523868,1.4751399469576114
-0.72475,1.4772107720523868,1.4754726181666267
-0.7245,1.4772107720523868,1.4754726181666267
-0.72425,1.4775494497744877,1.475805289375642
-0.724,1.4775494497744877,1.4761379605846572
-0.72375,1.4778881274965885,1.4761379605846572
-0.7235,1.4778881274965885,1.4764706317936724
-0.72325,1.4778881274965885,1.4764706317936724
-0.723,1.4782268052186893,1.4768033030026877
-0.72275,1.4785654829407902,1.477135974211703
-0.7225,1.4785654829407902,1.477135974211703
-0.72225,1.4789041606628908,1.4778013166297335
-0.722,1.4789041606628908,1.4774686454207182
-0.72175,1.4789041606628908,1.4778013166297335
-0.7215,1.4789041606628908,1.4778013166297335
-0.72125,1.4789041606628908,1.4781339878387487
-0.721,1.4792428383849916,1.478466659047764
-0.72075,1.4795815161070924,1.478466659047764
-0.7205,1.4799201938291933,1.4787993302567792
-0.72025,1.4799201938291933,1.4791320014657943
-0.72,1.4799201938291933,1.4791320014657943
-0.71975,1.4799201938291933,1.4794646726748095
-0.7195,1.480258871551294,1.4794646726748095
-0.71925,1.480258871551294,1.4797973438838248
-0.719,1.480597549273395,1.4797973438838248
-0.71875,1.480597549273395,1.48013001509284
-0.7185,1.480597549273395,1.48013001509284
-0.71825,1.4809362269954958,1.48013001509284
-0.718,1.4809362269954958,1.48013001509284
-0.71775,1.4809362269954958,1.48013001509284
-0.7175,1.4809362269954958,1.48013001509284
-0.71725,1.4809362269954958,1.4804626863018553
-0.717,1.4809362269954958,1.4804626863018553
-0.71675,1.4809362269954958,1.4804626863018553
-0.7165,1.4809362269954958,1.48013001509284
-0.71625,1.4809362269954958,1.48013001509284
-0.716,1.480597549273395,1.48013001509284
-0.71575,1.480597549273395,1.48013001509284
-0.7155,1.480597549273395,1.4797973438838248
-0.71525,1.480597549273395,1.4797973438838248
-0.715,1.480258871551294,1.4794646726748095
-0.71475,1.4799201938291933,1.4794646726748095
-0.7145,1.4799201938291933,1.4794646726748095
-0.71425,1.4795815161070924,1.4791320014657943
-0.714,1.4795815161070924,1.4787993302567792
-0.71375,1.4792428383849916,1.4787993302567792
-0.7135,1.4789041606628908,1.478466659047764
-0.71325,1.4789041606628908,1.478466659047764
-0.713,1.4785654829407902,1.4781339878387487
-0.71275,1.4785654829407902,1.4778013166297335
-0.7125,1.4782268052186893,1.4774686454207182
-0.71225,1.4778881274965885,1.4774686454207182
-0.712,1.4778881274965885,1.477135974211703
-0.71175,1.4775494497744877,1.477135974211703
-0.7115,1.4775494497744877,1.4768033030026877
-0.71125,1.4772107720523868,1.4764706317936724
-0.711,1.4772107720523868,1.4761379605846572
-0.71075,1.476872094330286,1.4761379605846572
-0.7105,1.476872094330286,1.475805289375642
-0.71025,1.476872094330286,1.475805289375642
-0.71,1.4761947388860843,1.4754726181666267
-0.70975,1.4761947388860843,1.4754726181666267
-0.7095,1.4761947388860843,1.4751399469576114
-0.70925,1.4761947388860843,1.4751399469576114
-0.709,1.4761947388860843,1.4748072757485962
-0.70875,1.4765334166081852,1.4748072757485962
-0.7085,1.4765334166081852,1.4751399469576114
-0.70825,1.4765334166081852,1.4748072757485962
-0.708,1.4765334166081852,1.4748072757485962
-0.70775,1.4765334166081852,1.4748072757485962
-0.7075,1.4765334166081852,1.474474604539581
-0.70725,1.4765334166081852,1.474474604539581
-0.707,1.4765334166081852,1.474474604539581
-0.70675,1.476872094330286,1.474474604539581
-0.7065,1.4772107720523868,1.474474604539581
-0.70625,1.476872094330286,1.474474604539581
-0.706,1.4772107720523868,1.4748072757485962
-0.70575,1.4772107720523868,1.4748072757485962
-0.7055,1.4772107720523868,1.4751399469576114
-0.70525,1.4775494497744877,1.4751399469576114
-0.705,1.4775494497744877,1.4751399469576114
-0.70475,1.4778881274965885,1.4754726181666267
-0.7045,1.4778881274965885,1.4754726181666267
-0.70425,1.4778881274965885,1.475805289375642
-0.704,1.4782268052186893,1.475805289375642
-0.70375,1.4782268052186893,1.4761379605846572
-0.7035,1.4785654829407902,1.4761379605846572
-0.70325,1.4785654829407902,1.4764706317936724
-0.703,1.4785654829407902,1.4768033030026877
-0.70275,1.4789041606628908,1.4768033030026877
-0.7025,1.4789041606628908,1.477135974211703
-0.70225,1.4792428383849916,1.477135974211703
-0.702,1.4795815161070924,1.4774686454207182
-0.70175,1.4795815161070924,1.4774686454207182
-0.7015,1.4795815161070924,1.4778013166297335
-0.70125,1.4795815161070924,1.4781339878387487
-0.701,1.4799201938291933,1.4781339878387487
-0.70075,1.4799201938291933,1.478466659047764
-0.7005,1.480258871551294,1.478466659047764
-0.70025,1.4799201938291933,1.4787993302567792
-0.7,1.480258871551294,1.4787993302567792
-0.69975,1.480258871551294,1.4791320014657943
-0.6995,1.480597549273395,1.4794646726748095
-0.69925,1.480597549273395,1.4794646726748095
-0.699,1.480597549273395,1.4797973438838248
-0.69875,1.480597549273395,1.48013001509284
-0.6985,1.480597549273395,1.48013001509284
-0.69825,1.480597549273395,1.48013001509284
-0.698,1.4809362269954958,1.4804626863018553
-0.69775,1.480597549273395,1.48013001509284
-0.6975,1.480597549273395,1.48013001509284
-0.69725,1.480597549273395,1.48013001509284
-0.697,1.480597549273395,1.48013001509284
-0.69675,1.480597549273395,1.4804626863018553
-0.6965,1.480597549273395,1.48013001509284
-0.69625,1.480258871551294,1.48013001509284
-0.696,1.480258871551294,1.48013001509284
-0.69575,1.480258871551294,1.48013001509284
-0.6955,1.480258871551294,1.4797973438838248
-0.69525,1.4799201938291933,1.4797973438838248
-0.695,1.4799201938291933,1.4797973438838248
-0.69475,1.4799201938291933,1.4794646726748095
-0.6945,1.4795815161070924,1.4794646726748095
-0.69425,1.4795815161070924,1.4794646726748095
-0.694,1.4792428383849916,1.4791320014657943
-0.69375,1.4792428383849916,1.4787993302567792
-0.6935,1.4789041606628908,1.4787993302567792
-0.69325,1.4789041606628908,1.4787993302567792
-0.693,1.4789041606628908,1.478466659047764
-0.69275,1.4785654829407902,1.4781339878387487
-0.6925,1.4782268052186893,1.4778013166297335
-0.69225,1.4782268052186893,1.4774686454207182
-0.692,1.4782268052186893,1.4774686454207182
-0.69175,1.4778881274965885,1.477135974211703
-0.6915,1.4778881274965885,1.477135974211703
-0.69125,1.4778881274965885,1.4768033030026877
-0.691,1.4775494497744877,1.4768033030026877
-0.69075,1.4775494497744877,1.4761379605846572
-0.6905,1.476872094330286,1.4761379605846572
-0.69025,1.4772107720523868,1.475805289375642
-0.69,1.476872094330286,1.4754726181666267
-0.68975,1.476872094330286,1.4754726181666267
-0.6895,1.476872094330286,1.4751399469576114
-0.68925,1.4765334166081852,1.4751399469576114
-0.689,1.4765334166081852,1.4751399469576114
-0.68875,1.4765334166081852,1.4748072757485962
-0.6885,1.4761947388860843,1.474474604539581
-0.68825,1.4761947388860843,1.4748072757485962
-0.688,1.4761947388860843,1.4748072757485962
-0.68775,1.4761947388860843,1.474474604539581
-0.6875,1.4761947388860843,1.474474604539581
-0.68725,1.4765334166081852,1.474474604539581
-0.687,1.4761947388860843,1.474474604539581
-0.68675,1.4765334166081852,1.474474604539581
-0.6865,1.4765334166081852,1.4748072757485962
-0.68625,1.4765334166081852,1.4748072757485962
-0.686,1.4765334166081852,1.4748072757485962
-0.68575,1.4765334166081852,1.4748072757485962
-0.6855,1.4765334166081852,1.4751399469576114
-0.68525,1.4765334166081852,1.4751399469576114
-0.685,1.4765334166081852,1.4754726181666267
-0.68475,1.476872094330286,1.4754726181666267
-0.6845,1.476872094330286,1.475805289375642
-0.68425,1.476872094330286,1.475805289375642
-0.684,1.476872094330286,1.475805289375642
-0.68375,1.4772107720523868,1.4761379605846572
-0.6835,1.476872094330286,1.4764706317936724
-0.68325,1.4772107720523868,1.4768033030026877
-0.683,1.4772107720523868,1.4768033030026877
-0.68275,1.4772107720523868,1.477135974211703
-0.6825,1.4775494497744877,1.4774686454207182
-0.68225,1.4772107720523868,1.4774686454207182
-0.682,1.4775494497744877,1.4781339878387487
-0.68175,1.4775494497744877,1.4781339878387487
-0.6815,1.4778881274965885,1.4781339878387487
-0.68125,1.4778881274965885,1.478466659047764
-0.681,1.4782268052186893,1.4787993302567792
-0.68075,1.4782268052186893,1.4787993302567792
-0.6805,1.4782268052186893,1.4791320014657943
-0.68025,1.4785654829407902,1.4791320014657943
-0.68,1.4785654829407902,1.4794646726748095
-0.67975,1.4785654829407902,1.4794646726748095
-0.6795,1.4785654829407902,1.4794646726748095
-0.67925,1.4789041606628908,1.4797973438838248
-0.679,1.4789041606628908,1.4797973438838248
-0.67875,1.4789041606628908,1.4797973438838248
-0.6785,1.4792428383849916,1.48013001509284
-0.67825,1.4792428383849916,1.48013001509284
-0.678,1.4795815161070924,1.48013001509284
-0.67775,1.4795815161070924,1.48013001509284
-0.6775,1.4792428383849916,1.48013001509284
-0.67725,1.4795815161070924,1.48013001509284
-0.677,1.4795815161070924,1.48013001509284
-0.67675,1.4795815161070924,1.48013001509284
-0.6765,1.4795815161070924,1.48013001509284
-0.67625,1.4795815161070924,1.48013001509284
-0.676,1.4795815161070924,1.48013001509284
-0.67575,1.4795815161070924,1.4797973438838248
-0.6755,1.4795815161070924,1.4797973438838248
-0.67525,1.4795815161070924,1.4794646726748095
-0.675,1.4795815161070924,1.4794646726748095
-0.67475,1.4792428383849916,1.4794646726748095
-0.6745,1.4792428383849916,1.4791320014657943
-0.67425,1.4789041606628908,1.4791320014657943
-0.674,1.4785654829407902,1.4787993302567792
-0.67375,1.4785654829407902,1.4787993302567792
-0.6735,1.4782268052186893,1.478466659047764
-0.67325,1.4782268052186893,1.4781339878387487
-0.673,1.4782268052186893,1.4778013166297335
-0.67275,1.4778881274965885,1.4778013166297335
-0.6725,1.4778881274965885,1.4774686454207182
-0.67225,1.4778881274965885,1.4774686454207182
-0.672,1.4775494497744877,1.477135974211703
-0.67175,1.4775494497744877,1.4768033030026877
-0.6715,1.4772107720523868,1.4768033030026877
-0.67125,1.476872094330286,1.4764706317936724
-0.671,1.4765334166081852,1.4761379605846572
-0.67075,1.4765334166081852,1.4761379605846572
-0.6705,1.4761947388860843,1.475805289375642
-0.67025,1.4761947388860843,1.4754726181666267
-0.67,1.4761947388860843,1.4754726181666267
-0.66975,1.4758560611639835,1.4751399469576114
-0.6695,1.4758560611639835,1.4751399469576114
-0.66925,1.4758560611639835,1.4751399469576114
-0.669,1.4755173834418827,1.4751399469576114
-0.66875,1.4755173834418827,1.4748072757485962
-0.6685,1.4755173834418827,1.4748072757485962
-0.66825,1.4755173834418827,1.474474604539581
-0.668,1.4755173834418827,1.474474604539581
-0.66775,1.4755173834418827,1.474474604539581
-0.6675,1.4755173834418827,1.474474604539581
-0.66725,1.4755173834418827,1.474474604539581
-0.667,1.4755173834418827,1.474474604539581
-0.66675,1.4755173834418827,1.474474604539581
-0.6665,1.4758560611639835,1.474474604539581
-0.66625,1.4758560611639835,1.4748072757485962
-0.666,1.4758560611639835,1.4748072757485962
-0.66575,1.4761947388860843,1.4748072757485962
-0.6655,1.4761947388860843,1.4748072757485962
-0.66525,1.4765334166081852,1.4751399469576114
-0.665,1.476872094330286,1.4751399469576114
-0.66475,1.476872094330286,1.4754726181666267
-0.6645,1.476872094330286,1.4754726181666267
-0.66425,1.4772107720523868,1.4754726181666267
-0.664,1.4775494497744877,1.475805289375642
-0.66375,1.4775494497744877,1.475805289375642
-0.6635,1.4778881274965885,1.4764706317936724
-0.66325,1.4782268052186893,1.4764706317936724
-0.663,1.4782268052186893,1.4768033030026877
-0.66275,1.4785654829407902,1.4768033030026877
-0.6625,1.4785654829407902,1.4768033030026877
-0.66225,1.4789041606628908,1.477135974211703
-0.662,1.4792428383849916,1.477135974211703
-0.66175,1.4792428383849916,1.4778013166297335
-0.6615,1.4792428383849916,1.4778013166297335
-0.66125,1.4792428383849916,1.4778013166297335
-0.661,1.4792428383849916,1.4781339878387487
-0.66075,1.4795815161070924,1.4781339878387487
-0.6605,1.4799201938291933,1.478466659047764
-0.66025,1.4799201938291933,1.478466659047764
-0.66,1.4799201938291933,1.4787993302567792
-0.65975,1.480258871551294,1.4787993302567792
-0.6595,1.480258871551294,1.4787993302567792
-0.65925,1.480597549273395,1.4791320014657943
-0.659,1.480597549273395,1.4794646726748095
-0.65875,1.480597549273395,1.4794646726748095
-0.6585,1.480597549273395,1.4797973438838248
-0.65825,1.4809362269954958,1.4797973438838248
-0.658,1.480597549273395,1.4797973438838248
-0.65775,1.480597549273395,1.4797973438838248
-0.6575,1.480258871551294,1.4797973438838248
-0.65725,1.480258871551294,1.4797973438838248
-0.657,1.480258871551294,1.4797973438838248
-0.65675,1.4799201938291933,1.4797973438838248
-0.6565,1.4799201938291933,1.4797973438838248
-0.65625,1.4799201938291933,1.4794646726748095
-0.656,1.4795815161070924,1.4794646726748095
-0.65575,1.4795815161070924,1.4791320014657943
-0.6555,1.4795815161070924,1.4791320014657943
-0.65525,1.4792428383849916,1.4787993302567792
-0.655,1.4792428383849916,1.4787993302567792
-0.65475,1.4792428383849916,1.478466659047764
-0.6545,1.4789041606628908,1.478466659047764
-0.65425,1.4789041606628908,1.4781339878387487
-0.654,1.4785654829407902,1.4778013166297335
-0.65375,1.4785654829407902,1.4778013166297335
-0.6535,1.4785654829407902,1.4778013166297335
-0.65325,1.4782268052186893,1.4774686454207182
-0.653,1.4782268052186893,1.4774686454207182
-0.65275,1.4782268052186893,1.477135974211703
-0.6525,1.4778881274965885,1.4768033030026877
-0.65225,1.4782268052186893,1.4768033030026877
-0.652,1.4778881274965885,1.4764706317936724
-0.65175,1.4778881274965885,1.4761379605846572
-0.6515,1.4778881274965885,1.4761379605846572
-0.65125,1.4778881274965885,1.475805289375642
-0.651,1.4778881274965885,1.4754726181666267
-0.65075,1.4782268052186893,1.4754726181666267
-0.6505,1.4775494497744877,1.4748072757485962
-0.65025,1.4778881274965885,1.4748072757485962
-0.65,1.4775494497744877,1.474474604539581
-0.64975,1.4772107720523868,1.474474604539581
-0.6495,1.4772107720523868,1.4741419333305656
-0.64925,1.4772107720523868,1.4741419333305656
-0.649,1.476872094330286,1.4738092621215504
-0.64875,1.476872094330286,1.4738092621215504
-0.6485,1.476872094330286,1.4734765909125354
-0.64825,1.476872094330286,1.4734765909125354
-0.648,1.476872094330286,1.4734765909125354
-0.64775,1.476872094330286,1.4734765909125354
-0.6475,1.476872094330286,1.4734765909125354
-0.64725,1.476872094330286,1.4734765909125354
-0.647,1.476872094330286,1.4738092621215504
-0.64675,1.476872094330286,1.4734765909125354
-0.6465,1.476872094330286,1.4734765909125354
-0.64625,1.4772107720523868,1.4738092621215504
-0.646,1.4775494497744877,1.4738092621215504
-0.64575,1.4772107720523868,1.4741419333305656
-0.6455,1.4775494497744877,1.4741419333305656
-0.64525,1.4775494497744877,1.474474604539581
-0.645,1.4775494497744877,1.474474604539581
-0.64475,1.4775494497744877,1.4748072757485962
-0.6445,1.4778881274965885,1.4748072757485962
-0.64425,1.4778881274965885,1.4751399469576114
-0.644,1.4778881274965885,1.4751399469576114
-0.64375,1.4782268052186893,1.4754726181666267
-0.6435,1.4782268052186893,1.475805289375642
-0.64325,1.4782268052186893,1.475805289375642
-0.643,1.4782268052186893,1.4761379605846572
-0.64275,1.4785654829407902,1.4761379605846572
-0.6425,1.4785654829407902,1.4764706317936724
-0.64225,1.4785654829407902,1.4768033030026877
-0.642,1.4789041606628908,1.4768033030026877
-0.64175,1.4789041606628908,1.477135974211703
-0.6415,1.4789041606628908,1.4774686454207182
-0.64125,1.4789041606628908,1.4774686454207182
-0.641,1.4792428383849916,1.4778013166297335
-0.64075,1.4792428383849916,1.4781339878387487
-0.6405,1.4792428383849916,1.4781339878387487
-0.64025,1.4792428383849916,1.478466659047764
-0.64,1.4795815161070924,1.478466659047764
-0.63975,1.4795815161070924,1.4787993302567792
-0.6395,1.4795815161070924,1.4791320014657943
-0.63925,1.4799201938291933,1.4791320014657943
-0.639,1.4799201938291933,1.4791320014657943
-0.63875,1.480258871551294,1.4794646726748095
-0.6385,1.480258871551294,1.4794646726748095
-0.63825,1.480258871551294,1.4794646726748095
-0.638,1.480258871551294,1.4797973438838248
-0.63775,1.480258871551294,1.4797973438838248
-0.6375,1.480258871551294,1.4797973438838248
-0.63725,1.4799201938291933,1.4797973438838248
-0.637,1.480258871551294,1.4797973438838248
-0.63675,1.4799201938291933,1.4797973438838248
-0.6365,1.4799201938291933,1.4797973438838248
-0.63625,1.4799201938291933,1.4797973438838248
-0.636,1.4795815161070924,1.4794646726748095
-0.63575,1.4795815161070924,1.4794646726748095
-0.6355,1.4795815161070924,1.4794646726748095
-0.63525,1.4795815161070924,1.4791320014657943
-0.635,1.4792428383849916,1.4791320014657943
-0.63475,1.4792428383849916,1.4791320014657943
-0.6345,1.4789041606628908,1.4787993302567792
-0.63425,1.4792428383849916,1.4787993302567792
-0.634,1.4789041606628908,1.478466659047764
-0.63375,1.4789041606628908,1.478466659047764
-0.6335,1.4785654829407902,1.4781339878387487
-0.63325,1.4789041606628908,1.4781339878387487
-0.633,1.4785654829407902,1.4778013166297335
-0.63275,1.4782268052186893,1.4774686454207182
-0.6325,1.4782268052186893,1.4774686454207182
-0.63225,1.4782268052186893,1.4774686454207182
-0.632,1.4782268052186893,1.477135974211703
-0.63175,1.4778881274965885,1.4768033030026877
-0.6315,1.4778881274965885,1.4768033030026877
-0.63125,1.4778881274965885,1.4764706317936724
-0.631,1.4778881274965885,1.4761379605846572
-0.63075,1.4778881274965885,1.475805289375642
-0.6305,1.4775494497744877,1.4751399469576114
-0.63025,1.4775494497744877,1.4754726181666267
-0.63,1.4775494497744877,1.4751399469576114
-0.62975,1.4775494497744877,1.4748072757485962
-0.6295,1.4772107720523868,1.4748072757485962
-0.62925,1.4772107720523868,1.4748072757485962
-0.629,1.4772107720523868,1.474474604539581
-0.62875,1.4772107720523868,1.474474604539581
-0.6285,1.4772107720523868,1.474474604539581
-0.62825,1.476872094330286,1.4741419333305656
-0.628,1.476872094330286,1.4738092621215504
-0.62775,1.476872094330286,1.4738092621215504
-0.6275,1.476872094330286,1.4738092621215504
-0.62725,1.4772107720523868,1.4738092621215504
-0.627,1.476872094330286,1.4738092621215504
-0.62675,1.4772107720523868,1.4738092621215504
-0.6265,1.476872094330286,1.4738092621215504
-0.62625,1.476872094330286,1.4738092621215504
-0.626,1.476872094330286,1.4738092621215504
-0.62575,1.4772107720523868,1.4741419333305656
-0.6255,1.4772107720523868,1.4741419333305656
-0.62525,1.4772107720523868,1.4741419333305656
-0.625,1.4775494497744877,1.474474604539581
-0.62475,1.4775494497744877,1.4748072757485962
-0.6245,1.4775494497744877,1.474474604539581
-0.62425,1.4775494497744877,1.4748072757485962
-0.624,1.4782268052186893,1.4751399469576114
-0.62375,1.4778881274965885,1.4751399469576114
-0.6235,1.4782268052186893,1.4754726181666267
-0.62325,1.4785654829407902,1.475805289375642
-0.623,1.4785654829407902,1.4761379605846572
-0.62275,1.4789041606628908,1.4761379605846572
-0.6225,1.4789041606628908,1.4764706317936724
-0.62225,1.4792428383849916,1.4768033030026877
-0.622,1.4795815161070924,1.4768033030026877
-0.62175,1.4795815161070924,1.4768033030026877
-0.6215,1.4799201938291933,1.477135974211703
-0.62125,1.4799201938291933,1.4774686454207182
-0.621,1.4799201938291933,1.4774686454207182
-0.62075,1.4799201938291933,1.4778013166297335
-0.6205,1.4799201938291933,1.4778013166297335
-0.62025,1.480258871551294,1.4781339878387487
-0.62,1.480258871551294,1.478466659047764
-0.61975,1.480258871551294,1.478466659047764
-0.6195,1.480258871551294,1.478466659047764
-0.61925,1.480258871551294,1.4787993302567792
-0.619,1.480258871551294,1.4787993302567792
-0.61875,1.480597549273395,1.4787993302567792
-0.6185,1.480597549273395,1.4787993302567792
-0.61825,1.480597549273395,1.4791320014657943
-0.618,1.480597549273395,1.4791320014657943
-0.61775,1.480597549273395,1.4791320014657943
-0.6175,1.480258871551294,1.4791320014657943
-0.61725,1.480597549273395,1.4794646726748095
-0.617,1.480258871551294,1.4791320014657943
-0.61675,1.480597549273395,1.4794646726748095
-0.6165,1.480258871551294,1.4794646726748095
-0.61625,1.480258871551294,1.4791320014657943
-0.616,1.480258871551294,1.4791320014657943
-0.61575,1.4799201938291933,1.4787993302567792
-0.6155,1.4795815161070924,1.4787993302567792
-0.61525,1.4795815161070924,1.4787993302567792
-0.615,1.4795815161070924,1.478466659047764
-0.61475,1.4792428383849916,1.478466659047764
-0.6145,1.4789041606628908,1.4781339878387487
-0.61425,1.4789041606628908,1.4778013166297335
-0.614,1.4785654829407902,1.4778013166297335
-0.61375,1.4785654829407902,1.4774686454207182
-0.6135,1.4782268052186893,1.4774686454207182
-0.61325,1.4782268052186893,1.477135974211703
-0.613,1.4782268052186893,1.4768033030026877
-0.61275,1.4782268052186893,1.4768033030026877
-0.6125,1.4782268052186893,1.4764706317936724
-0.61225,1.4782268052186893,1.4764706317936724
-0.612,1.4778881274965885,1.4761379605846572
-0.61175,1.4778881274965885,1.4761379605846572
-0.6115,1.4778881274965885,1.475805289375642
-0.61125,1.4775494497744877,1.4754726181666267
-0.611,1.4775494497744877,1.4751399469576114
-0.61075,1.4772107720523868,1.4751399469576114
-0.6105,1.4772107720523868,1.4748072757485962
-0.61025,1.4772107720523868,1.4748072757485962
-0.61,1.476872094330286,1.474474604539581
-0.60975,1.476872094330286,1.4741419333305656
-0.6095,1.4765334166081852,1.4738092621215504
-0.60925,1.476872094330286,1.4741419333305656
-0.609,1.4765334166081852,1.4741419333305656
-0.60875,1.4765334166081852,1.4734765909125354
-0.6085,1.4765334166081852,1.4738092621215504
-0.60825,1.4761947388860843,1.4738092621215504
-0.608,1.4761947388860843,1.4738092621215504
-0.60775,1.4761947388860843,1.4734765909125354
-0.6075,1.4761947388860843,1.4734765909125354
-0.60725,1.4761947388860843,1.4734765909125354
-0.607,1.4761947388860843,1.4734765909125354
-0.60675,1.4761947388860843,1.4734765909125354
-0.6065,1.4761947388860843,1.4734765909125354
-0.60625,1.4761947388860843,1.4734765909125354
-0.606,1.4761947388860843,1.4734765909125354
-0.60575,1.4761947388860843,1.4738092621215504
-0.6055,1.4765334166081852,1.4738092621215504
-0.60525,1.4765334166081852,1.4738092621215504
-0.605,1.4765334166081852,1.4741419333305656
-0.60475,1.4765334166081852,1.4741419333305656
-0.6045,1.4765334166081852,1.4741419333305656
-0.60425,1.476872094330286,1.474474604539581
-0.604,1.476872094330286,1.4748072757485962
-0.60375,1.476872094330286,1.4748072757485962
-0.6035,1.4772107720523868,1.4751399469576114
-0.60325,1.4772107720523868,1.4754726181666267
-0.603,1.4775494497744877,1.4754726181666267
-0.60275,1.4775494497744877,1.4754726181666267
-0.6025,1.4775494497744877,1.475805289375642
-0.60225,1.4778881274965885,1.4761379605846572
-0.602,1.4775494497744877,1.4764706317936724
-0.60175,1.4778881274965885,1.4761379605846572
-0.6015,1.4778881274965885,1.4768033030026877
-0.60125,1.4782268052186893,1.4768033030026877
-0.601,1.4782268052186893,1.477135974211703
-0.60075,1.4785654829407902,1.4774686454207182
-0.6005,1.4785654829407902,1.4774686454207182
-0.60025,1.4789041606628908,1.4778013166297335
-0.6,1.4789041606628908,1.4778013166297335
-0.59975,1.4792428383849916,1.4778013166297335
-0.5995,1.4792428383849916,1.478466659047764
-0.59925,1.4795815161070924,1.478466659047764
-0.599,1.4795815161070924,1.478466659047764
-0.59875,1.4799201938291933,1.478466659047764
-0.5985,1.4799201938291933,1.478466659047764
-0.59825,1.480258871551294,1.4787993302567792
-0.598,1.480258871551294,1.4787993302567792
-0.59775,1.480258871551294,1.4787993302567792
-0.5975,1.480258871551294,1.4787993302567792
-0.59725,1.480258871551294,1.4787993302567792
-0.597,1.480597549273395,1.4791320014657943
-0.59675,1.480597549273395,1.4787993302567792
-0.5965,1.480597549273395,1.4791320014657943
-0.59625,1.480597549273395,1.4791320014657943
-0.596,1.480597549273395,1.4787993302567792
-0.59575,1.480597549273395,1.4787993302567792
-0.5955,1.480597549273395,1.4787993302567792
-0.59525,1.480597549273395,1.4787993302567792
-0.595,1.480597549273395,1.478466659047764
-0.59475,1.480258871551294,1.478466659047764
-0.5945,1.480597549273395,1.478466659047764
-0.59425,1.480258871551294,1.4781339878387487
-0.594,1.480258871551294,1.4778013166297335
-0.59375,1.4799201938291933,1.4778013166297335
-0.5935,1.4799201938291933,1.4774686454207182
-0.59325,1.4799201938291933,1.4774686454207182
-0.593,1.4799201938291933,1.477135974211703
-0.59275,1.4799201938291933,1.4768033030026877
-0.5925,1.4795815161070924,1.4768033030026877
-0.59225,1.4795815161070924,1.4764706317936724
-0.592,1.4792428383849916,1.4761379605846572
-0.59175,1.4789041606628908,1.475805289375642
-0.5915,1.4789041606628908,1.475805289375642
-0.59125,1.4785654829407902,1.4754726181666267
-0.591,1.4782268052186893,1.4751399469576114
-0.59075,1.4782268052186893,1.4748072757485962
-0.5905,1.4778881274965885,1.4748072757485962
-0.59025,1.4775494497744877,1.474474604539581
-0.59,1.4772107720523868,1.4741419333305656
-0.58975,1.4772107720523868,1.4741419333305656
-0.5895,1.4772107720523868,1.4738092621215504
-0.58925,1.476872094330286,1.4734765909125354
-0.589,1.476872094330286,1.4734765909125354
-0.58875,1.4765334166081852,1.47314391970352
-0.5885,1.4761947388860843,1.47314391970352
-0.58825,1.4758560611639835,1.4728112484945048
-0.588,1.4755173834418827,1.4724785772854896
-0.58775,1.4755173834418827,1.4724785772854896
-0.5875,1.4751787057197818,1.4724785772854896
-0.58725,1.474840027997681,1.4724785772854896
-0.587,1.474840027997681,1.4721459060764743
-0.58675,1.4745013502755802,1.4721459060764743
-0.5865,1.4741626725534793,1.4721459060764743
-0.58625,1.4741626725534793,1.4721459060764743
-0.586,1.4741626725534793,1.4721459060764743
-0.58575,1.4738239948313785,1.4721459060764743
-0.5855,1.4738239948313785,1.4721459060764743
-0.58525,1.4734853171092777,1.4721459060764743
-0.585,1.4734853171092777,1.4721459060764743
-0.58475,1.4731466393871768,1.4721459060764743
-0.5845,1.472807961665076,1.4721459060764743
-0.58425,1.472807961665076,1.4724785772854896
-0.584,1.472807961665076,1.4724785772854896
-0.58375,1.472807961665076,1.4724785772854896
-0.5835,1.472807961665076,1.4724785772854896
-0.58325,1.472807961665076,1.4724785772854896
-0.583,1.472807961665076,1.4724785772854896
-0.58275,1.4734853171092777,1.4728112484945048
-0.5825,1.4731466393871768,1.4728112484945048
-0.58225,1.4731466393871768,1.4728112484945048
-0.582,1.4738239948313785,1.4728112484945048
-0.58175,1.4741626725534793,1.47314391970352
-0.5815,1.4745013502755802,1.4734765909125354
-0.58125,1.474840027997681,1.4734765909125354
-0.581,1.4751787057197818,1.4738092621215504
-0.58075,1.4755173834418827,1.4738092621215504
-0.5805,1.4758560611639835,1.4741419333305656
-0.58025,1.4758560611639835,1.4741419333305656
-0.58,1.4761947388860843,1.474474604539581
-0.57975,1.4761947388860843,1.474474604539581
-0.5795,1.4761947388860843,1.474474604539581
-0.57925,1.4761947388860843,1.4748072757485962
-0.579,1.4761947388860843,1.4748072757485962
-0.57875,1.4758560611639835,1.4748072757485962
-0.5785,1.4758560611639835,1.4751399469576114
-0.57825,1.4758560611639835,1.4751399469576114
-0.578,1.4755173834418827,1.4751399469576114
-0.57775,1.4755173834418827,1.4751399469576114
-0.5775,1.4755173834418827,1.4751399469576114
-0.57725,1.4755173834418827,1.4751399469576114
-0.577,1.4755173834418827,1.4751399469576114
-0.57675,1.4751787057197818,1.4751399469576114
-0.5765,1.4751787057197818,1.4751399469576114
-0.57625,1.474840027997681,1.4751399469576114
-0.576,1.474840027997681,1.4751399469576114
-0.57575,1.474840027997681,1.4748072757485962
-0.5755,1.4745013502755802,1.4748072757485962
-0.57525,1.4741626725534793,1.4748072757485962
-0.575,1.4741626725534793,1.4748072757485962
-0.57475,1.4741626725534793,1.4748072757485962
-0.5745,1.4741626725534793,1.4748072757485962
-0.57425,1.4738239948313785,1.4748072757485962
-0.574,1.4738239948313785,1.474474604539581
-0.57375,1.4738239948313785,1.4741419333305656
-0.5735,1.4741626725534793,1.474474604539581
-0.57325,1.4741626725534793,1.4741419333305656
-0.573,1.4741626725534793,1.4738092621215504
-0.57275,1.4741626725534793,1.4741419333305656
-0.5725,1.4741626725534793,1.4738092621215504
-0.57225,1.4741626725534793,1.4734765909125354
-0.572,1.4741626725534793,1.4734765909125354
-0.57175,1.4741626725534793,1.4734765909125354
-0.5715,1.4745013502755802,1.4734765909125354
-0.57125,1.4745013502755802,1.47314391970352
-0.571,1.4745013502755802,1.47314391970352
-0.57075,1.4741626725534793,1.47314391970352
-0.5705,1.4741626725534793,1.47314391970352
-0.57025,1.4741626725534793,1.4728112484945048
-0.57,1.4738239948313785,1.4728112484945048
-0.56975,1.4738239948313785,1.4728112484945048
-0.5695,1.4734853171092777,1.4724785772854896
-0.56925,1.4734853171092777,1.4724785772854896
-0.569,1.4734853171092777,1.4724785772854896
-0.56875,1.4734853171092777,1.4724785772854896
-0.5685,1.4734853171092777,1.4721459060764743
-0.56825,1.4738239948313785,1.4724785772854896
-0.568,1.4738239948313785,1.4721459060764743
-0.56775,1.4738239948313785,1.4724785772854896
-0.5675,1.4741626725534793,1.4724785772854896
-0.56725,1.4738239948313785,1.4724785772854896
-0.567,1.4741626725534793,1.4724785772854896
-0.56675,1.4741626725534793,1.4724785772854896
-0.5665,1.4741626725534793,1.4728112484945048
-0.56625,1.4745013502755802,1.4728112484945048
-0.566,1.4745013502755802,1.4728112484945048
-0.56575,1.4745013502755802,1.4728112484945048
-0.5655,1.474840027997681,1.47314391970352
-0.56525,1.474840027997681,1.4734765909125354
-0.565,1.4751787057197818,1.4734765909125354
-0.56475,1.4751787057197818,1.4738092621215504
-0.5645,1.4751787057197818,1.4738092621215504
-0.56425,1.4755173834418827,1.4741419333305656
-0.564,1.4755173834418827,1.474474604539581
-0.56375,1.4758560611639835,1.4748072757485962
-0.5635,1.4758560611639835,1.4748072757485962
-0.56325,1.4758560611639835,1.4748072757485962
-0.563,1.4755173834418827,1.4751399469576114
-0.56275,1.4758560611639835,1.4754726181666267
-0.5625,1.4755173834418827,1.475805289375642
-0.56225,1.4755173834418827,1.475805289375642
-0.562,1.4755173834418827,1.4761379605846572
-0.56175,1.4751787057197818,1.4764706317936724
-0.5615,1.4751787057197818,1.4768033030026877
-0.56125,1.4751787057197818,1.477135974211703
-0.561,1.4751787057197818,1.477135974211703
-0.56075,1.4751787057197818,1.477135974211703
-0.5605,1.4751787057197818,1.4774686454207182
-0.56025,1.4751787057197818,1.4774686454207182
-0.56,1.4751787057197818,1.4778013166297335
-0.55975,1.474840027997681,1.4778013166297335
-0.5595,1.474840027997681,1.4781339878387487
-0.55925,1.474840027997681,1.4781339878387487
-0.559,1.474840027997681,1.4781339878387487
-0.55875,1.474840027997681,1.4781339878387487
-0.5585,1.474840027997681,1.478466659047764
-0.55825,1.4751787057197818,1.478466659047764
-0.558,1.474840027997681,1.478466659047764
-0.55775,1.474840027997681,1.478466659047764
-0.5575,1.474840027997681,1.478466659047764
-0.55725,1.4751787057197818,1.478466659047764
-0.557,1.4755173834418827,1.478466659047764
-0.55675,1.4755173834418827,1.4781339878387487
-0.5565,1.4758560611639835,1.4781339878387487
-0.55625,1.4758560611639835,1.4778013166297335
-0.556,1.4761947388860843,1.4778013166297335
-0.55575,1.4765334166081852,1.4778013166297335
-0.5555,1.476872094330286,1.4778013166297335
-0.55525,1.476872094330286,1.4774686454207182
-0.555,1.4772107720523868,1.4774686454207182
-0.55475,1.4775494497744877,1.477135974211703
-0.5545,1.4775494497744877,1.477135974211703
-0.55425,1.4775494497744877,1.477135974211703
-0.554,1.4775494497744877,1.477135974211703
-0.55375,1.4775494497744877,1.4768033030026877
-0.5535,1.4775494497744877,1.4768033030026877
-0.55325,1.4775494497744877,1.4764706317936724
-0.553,1.4772107720523868,1.4761379605846572
-0.55275,1.4775494497744877,1.4761379605846572
-0.5525,1.4772107720523868,1.475805289375642
-0.55225,1.4775494497744877,1.4754726181666267
-0.552,1.4775494497744877,1.4754726181666267
-0.55175,1.4778881274965885,1.4751399469576114
-0.5515,1.4775494497744877,1.4751399469576114
-0.55125,1.4775494497744877,1.4748072757485962
-0.551,1.4775494497744877,1.4748072757485962
-0.55075,1.4778881274965885,1.474474604539581
-0.5505,1.4772107720523868,1.4741419333305656
-0.55025,1.4772107720523868,1.4741419333305656
-0.55,1.4775494497744877,1.4738092621215504
-0.54975,1.4775494497744877,1.4734765909125354
-0.5495,1.4775494497744877,1.4734765909125354
-0.54925,1.4775494497744877,1.4734765909125354
-0.549,1.4775494497744877,1.4734765909125354
-0.54875,1.4775494497744877,1.47314391970352
-0.5485,1.4775494497744877,1.47314391970352
-0.54825,1.4775494497744877,1.4728112484945048
-0.548,1.4775494497744877,1.47314391970352
-0.54775,1.4775494497744877,1.47314391970352
-0.5475,1.4772107720523868,1.47314391970352
-0.54725,1.4775494497744877,1.47314391970352
-0.547,1.4775494497744877,1.47314391970352
-0.54675,1.4775494497744877,1.4734765909125354
-0.5465,1.4775494497744877,1.4734765909125354
-0.54625,1.4775494497744877,1.4738092621215504
-0.546,1.4778881274965885,1.4738092621215504
-0.54575,1.4782268052186893,1.4741419333305656
-0.5455,1.4782268052186893,1.4741419333305656
-0.54525,1.4785654829407902,1.4748072757485962
-0.545,1.4785654829407902,1.4748072757485962
-0.54475,1.4789041606628908,1.4748072757485962
-0.5445,1.4792428383849916,1.4751399469576114
-0.54425,1.4792428383849916,1.4754726181666267
-0.544,1.4795815161070924,1.475805289375642
-0.54375,1.4799201938291933,1.475805289375642
-0.5435,1.4799201938291933,1.4761379605846572
-0.54325,1.4799201938291933,1.4761379605846572
-0.543,1.480597549273395,1.4764706317936724
-0.54275,1.480597549273395,1.4768033030026877
-0.5425,1.480597549273395,1.4768033030026877
-0.54225,1.4809362269954958,1.477135974211703
-0.542,1.4812749047175966,1.477135974211703
-0.54175,1.4812749047175966,1.4778013166297335
-0.5415,1.4816135824396974,1.4781339878387487
-0.54125,1.4816135824396974,1.478466659047764
-0.541,1.4819522601617983,1.478466659047764
-0.54075,1.4819522601617983,1.478466659047764
-0.5405,1.482290937883899,1.478466659047764
-0.54025,1.482290937883899,1.4791320014657943
-0.54,1.482629615606,1.4794646726748095
-0.53975,1.482629615606,1.4794646726748095
-0.5395,1.482629615606,1.4797973438838248
-0.53925,1.4829682933281008,1.4797973438838248
-0.539,1.4829682933281008,1.48013001509284
-0.53875,1.4833069710502016,1.48013001509284
-0.5385,1.4829682933281008,1.4804626863018553
-0.53825,1.4833069710502016,1.4804626863018553
-0.538,1.4833069710502016,1.4804626863018553
-0.53775,1.4836456487723024,1.4807953575108705
-0.5375,1.4836456487723024,1.4807953575108705
-0.53725,1.4836456487723024,1.4807953575108705
-0.537,1.4836456487723024,1.4807953575108705
-0.53675,1.4833069710502016,1.4807953575108705
-0.5365,1.4836456487723024,1.4807953575108705
-0.53625,1.4833069710502016,1.4807953575108705
-0.536,1.4836456487723024,1.4807953575108705
-0.53575,1.4836456487723024,1.4807953575108705
-0.5355,1.4833069710502016,1.4804626863018553
-0.53525,1.4833069710502016,1.4804626863018553
-0.535,1.4833069710502016,1.4804626863018553
-0.53475,1.4829682933281008,1.4804626863018553
-0.5345,1.4829682933281008,1.48013001509284
-0.53425,1.482629615606,1.48013001509284
-0.534,1.482629615606,1.4797973438838248
-0.53375,1.482629615606,1.4797973438838248
-0.5335,1.482290937883899,1.4794646726748095
-0.53325,1.4819522601617983,1.4791320014657943
-0.533,1.4819522601617983,1.4787993302567792
-0.53275,1.4819522601617983,1.4787993302567792
-0.5325,1.4816135824396974,1.478466659047764
-0.53225,1.4812749047175966,1.4781339878387487
-0.532,1.4812749047175966,1.4781339878387487
-0.53175,1.4812749047175966,1.4778013166297335
-0.5315,1.4812749047175966,1.4778013166297335
-0.53125,1.4809362269954958,1.477135974211703
-0.531,1.4809362269954958,1.477135974211703
-0.53075,1.4809362269954958,1.477135974211703
-0.5305,1.480597549273395,1.4768033030026877
-0.53025,1.480597549273395,1.4764706317936724
-0.53,1.480597549273395,1.4764706317936724
-0.52975,1.480258871551294,1.4761379605846572
-0.5295,1.4799201938291933,1.4761379605846572
-0.52925,1.4799201938291933,1.475805289375642
-0.529,1.4799201938291933,1.475805289375642
-0.52875,1.4795815161070924,1.4754726181666267
-0.5285,1.4795815161070924,1.4754726181666267
-0.52825,1.4792428383849916,1.4751399469576114
-0.528,1.4789041606628908,1.4754726181666267
-0.52775,1.4789041606628908,1.4751399469576114
-0.5275,1.4789041606628908,1.4751399469576114
-0.52725,1.4785654829407902,1.4751399469576114
-0.527,1.4785654829407902,1.4751399469576114
-0.52675,1.4778881274965885,1.4751399469576114
-0.5265,1.4778881274965885,1.4751399469576114
-0.52625,1.4778881274965885,1.4751399469576114
-0.526,1.4775494497744877,1.4754726181666267
-0.52575,1.4775494497744877,1.4754726181666267
-0.5255,1.4775494497744877,1.475805289375642
-0.52525,1.4772107720523868,1.475805289375642
-0.525,1.4772107720523868,1.4761379605846572
-0.52475,1.4775494497744877,1.4761379605846572
-0.5245,1.4775494497744877,1.4761379605846572
-0.52425,1.4775494497744877,1.4761379605846572
-0.524,1.4775494497744877,1.4764706317936724
-0.52375,1.4775494497744877,1.4768033030026877
-0.5235,1.4772107720523868,1.477135974211703
-0.52325,1.4775494497744877,1.477135974211703
-0.523,1.4775494497744877,1.4774686454207182
-0.52275,1.4775494497744877,1.4778013166297335
-0.5225,1.4778881274965885,1.4781339878387487
-0.52225,1.4782268052186893,1.4781339878387487
-0.522,1.4782268052186893,1.4781339878387487
-0.52175,1.4785654829407902,1.478466659047764
-0.5215,1.4789041606628908,1.4787993302567792
-0.52125,1.4789041606628908,1.4791320014657943
-0.521,1.4792428383849916,1.4791320014657943
-0.52075,1.4795815161070924,1.4794646726748095
-0.5205,1.4799201938291933,1.4794646726748095
-0.52025,1.480258871551294,1.4797973438838248
-0.52,1.480597549273395,1.4797973438838248
-0.51975,1.480597549273395,1.4797973438838248
-0.5195,1.4809362269954958,1.4797973438838248
-0.51925,1.4809362269954958,1.4797973438838248
-0.519,1.4809362269954958,1.4797973438838248
-0.51875,1.4809362269954958,1.4797973438838248
-0.5185,1.4809362269954958,1.4797973438838248
-0.51825,1.4809362269954958,1.4797973438838248
-0.518,1.4812749047175966,1.4797973438838248
-0.51775,1.4812749047175966,1.4797973438838248
-0.5175,1.4816135824396974,1.4797973438838248
-0.51725,1.4816135824396974,1.4797973438838248
-0.517,1.4816135824396974,1.4797973438838248
-0.51675,1.4816135824396974,1.4797973438838248
-0.5165,1.4819522601617983,1.4797973438838248
-0.51625,1.4816135824396974,1.4797973438838248
-0.516,1.4819522601617983,1.4794646726748095
-0.51575,1.4819522601617983,1.4794646726748095
-0.5155,1.4819522601617983,1.4794646726748095
-0.51525,1.4819522601617983,1.4791320014657943
-0.515,1.4819522601617983,1.4791320014657943
-0.51475,1.4819522601617983,1.4791320014657943
-0.5145,1.4819522601617983,1.4791320014657943
-0.51425,1.4819522601617983,1.4787993302567792
-0.514,1.4819522601617983,1.4787993302567792
-0.51375,1.4819522601617983,1.478466659047764
-0.5135,1.4819522601617983,1.478466659047764
-0.51325,1.4819522601617983,1.4781339878387487
-0.513,1.4816135824396974,1.4778013166297335
-0.51275,1.4816135824396974,1.4778013166297335
-0.5125,1.4816135824396974,1.4774686454207182
-0.51225,1.4812749047175966,1.4774686454207182
-0.512,1.4809362269954958,1.477135974211703
-0.51175,1.4809362269954958,1.477135974211703
-0.5115,1.480597549273395,1.4768033030026877
-0.51125,1.480258871551294,1.4764706317936724
-0.511,1.480258871551294,1.4764706317936724
-0.51075,1.4799201938291933,1.4761379605846572
-0.5105,1.4795815161070924,1.4761379605846572
-0.51025,1.4795815161070924,1.4761379605846572
-0.51,1.4792428383849916,1.4761379605846572
-0.50975,1.4789041606628908,1.475472618166627
-0.5095,1.4789041606628908,1.4754726181666267
-0.50925,1.4789041606628908,1.4751399469576114
-0.509,1.4789041606628908,1.4751399469576114
-0.50875,1.4785654829407902,1.4748072757485962
-0.5085,1.4782268052186893,1.474474604539581
-0.50825,1.4782268052186893,1.474474604539581
-0.508,1.4778881274965885,1.474474604539581
-0.50775,1.4778881274965885,1.4741419333305656
-0.5075,1.4775494497744877,1.4738092621215504
-0.50725,1.4775494497744877,1.4738092621215504
-0.507,1.4775494497744877,1.4734765909125354
-0.50675,1.4775494497744877,1.47314391970352
-0.5065,1.4775494497744877,1.47314391970352
-0.50625,1.4778881274965885,1.4728112484945048
-0.506,1.4782268052186893,1.4724785772854896
-0.50575,1.4785654829407902,1.4724785772854896
-0.5055,1.4789041606628908,1.471813234867459
-0.50525,1.4789041606628908,1.4714805636584438
-0.505,1.4792428383849916,1.4711478924494286
-0.50475,1.4792428383849916,1.4708152212404133
-0.5045,1.4789041606628908,1.470482550031398
-0.50425,1.4789041606628908,1.4701498788223828
-0.504,1.4785654829407902,1.4701498788223828
-0.50375,1.4789041606628908,1.4698172076133675
-0.5035,1.4792428383849916,1.4694845364043523
-0.50325,1.4795815161070924,1.4694845364043523
-0.503,1.4799201938291933,1.469151865195337
-0.50275,1.480258871551294,1.4688191939863218
-0.5025,1.480597549273395,1.4684865227773065
-0.50225,1.4809362269954958,1.4684865227773065
-0.502,1.4816135824396974,1.4681538515682915
-0.50175,1.4819522601617983,1.4681538515682915
-0.5015,1.4819522601617983,1.4678211803592762
-0.50125,1.482290937883899,1.4678211803592762
-0.501,1.482629615606,1.467488509150261
-0.50075,1.4829682933281008,1.4671558379412457
-0.5005,1.4829682933281008,1.4668231667322305
-0.50025,1.4833069710502016,1.4664904955232152
-0.5,1.4836456487723024,1.4661578243142
-0.49975,1.4839843264944033,1.4658251531051847
-0.4995,1.484323004216504,1.4658251531051847
-0.49925,1.484661681938605,1.4654924818961694
-0.499,1.484661681938605,1.4651598106871542
-0.49875,1.484661681938605,1.4651598106871542
-0.4985,1.4850003596607058,1.464827139478139
-0.49825,1.484661681938605,1.4644944682691237
-0.498,1.484661681938605,1.4641617970601084
-0.49775,1.484323004216504,1.4638291258510931
-0.4975,1.484323004216504,1.4638291258510931
-0.49725,1.4839843264944033,1.463496454642078
-0.497,1.4836456487723024,1.4631637834330626
-0.49675,1.4833069710502016,1.4631637834330626
-0.4965,1.4829682933281008,1.4631637834330626
-0.49625,1.4829682933281008,1.4631637834330626
-0.496,1.482629615606,1.4631637834330626
-0.49575,1.482290937883899,1.4631637834330626
-0.4955,1.4819522601617983,1.4631637834330626
-0.49525,1.4812749047175966,1.4631637834330626
-0.495,1.480597549273395,1.463496454642078
-0.49475,1.480258871551294,1.4638291258510931
-0.4945,1.4792428383849916,1.4638291258510931
-0.49425,1.4785654829407902,1.4641617970601084
-0.494,1.4782268052186893,1.4644944682691237
-0.49375,1.4778881274965885,1.464827139478139
-0.4935,1.4775494497744877,1.4651598106871542
-0.49325,1.4775494497744877,1.4654924818961694
-0.493,1.4772107720523868,1.4658251531051847
-0.49275,1.4772107720523868,1.4664904955232152
-0.4925,1.4772107720523868,1.4668231667322305
-0.49225,1.4775494497744877,1.4671558379412457
-0.492,1.4775494497744877,1.467488509150261
-0.49175,1.476872094330286,1.4678211803592762
-0.4915,1.4761947388860843,1.4681538515682915
-0.49125,1.4755173834418827,1.4684865227773065
-0.491,1.474840027997681,1.4688191939863218
-0.49075,1.4738239948313785,1.4688191939863218
-0.4905,1.472807961665076,1.4684865227773065
-0.49025,1.4721306062208743,1.4688191939863218
-0.49,1.4717919284987735,1.4688191939863218
-0.48975,1.4711145730545718,1.4688191939863218
-0.4895,1.4704372176103702,1.469151865195337
-0.48925,1.4697598621661687,1.469151865195337
-0.489,1.4694211844440679,1.469151865195337
-0.48875,1.469082506721967,1.469151865195337
-0.4885,1.469082506721967,1.4694845364043523
-0.48825,1.4687438289998662,1.4694845364043523
-0.488,1.4687438289998662,1.4698172076133675
-0.48775,1.4687438289998662,1.4701498788223828
-0.4875,1.4684051512777654,1.470482550031398
-0.48725,1.4684051512777654,1.470482550031398
-0.487,1.4684051512777654,1.4711478924494286
-0.48675,1.4687438289998662,1.4714805636584438
-0.4865,1.4687438289998662,1.471813234867459
-0.48625,1.4694211844440679,1.4721459060764743
-0.486,1.4697598621661687,1.4721459060764743
-0.48575,1.4700985398882696,1.4724785772854896
-0.4855,1.4704372176103702,1.4728112484945048
-0.48525,1.4711145730545718,1.4724785772854896
-0.485,1.4714532507766727,1.4724785772854896
-0.48475,1.4721306062208743,1.4728112484945048
-0.4845,1.4731466393871768,1.4724785772854896
-0.48425,1.4738239948313785,1.4724785772854896
-0.484,1.4745013502755802,1.4728112484945048
-0.48375,1.4755173834418827,1.4728112484945048
-0.4835,1.4758560611639835,1.4728112484945048
-0.48325,1.4765334166081852,1.4728112484945048
-0.483,1.476872094330286,1.47314391970352
-0.48275,1.4772107720523868,1.47314391970352
-0.4825,1.4775494497744877,1.4734765909125354
-0.48225,1.4775494497744877,1.4734765909125354
-0.482,1.4775494497744877,1.4738092621215504
-0.48175,1.4778881274965885,1.4734765909125354
-0.4815,1.4778881274965885,1.4734765909125354
-0.48125,1.4785654829407902,1.4734765909125354
-0.481,1.4789041606628908,1.4734765909125354
-0.48075,1.4792428383849916,1.47314391970352
-0.4805,1.4799201938291933,1.47314391970352
-0.48025,1.480258871551294,1.47314391970352
-0.48,1.480597549273395,1.47314391970352
-0.47975,1.4812749047175966,1.47314391970352
-0.4795,1.4819522601617983,1.47314391970352
-0.47925,1.482629615606,1.47314391970352
-0.479,1.4829682933281008,1.4734765909125354
-0.47875,1.4836456487723024,1.4734765909125354
-0.4785,1.4836456487723024,1.4734765909125354
-0.47825,1.4836456487723024,1.4734765909125354
-0.478,1.4839843264944033,1.4734765909125354
-0.47775,1.4839843264944033,1.4734765909125354
-0.4775,1.484323004216504,1.4734765909125354
-0.47725,1.484661681938605,1.4734765909125354
-0.477,1.4850003596607058,1.4734765909125354
-0.47675,1.4850003596607058,1.4734765909125354
-0.4765,1.4850003596607058,1.47314391970352
-0.47625,1.4853390373828066,1.47314391970352
-0.476,1.4853390373828066,1.47314391970352
-0.47575,1.4853390373828066,1.4728112484945048
-0.4755,1.4853390373828066,1.4724785772854896
-0.47525,1.4850003596607058,1.4724785772854896
-0.475,1.4850003596607058,1.4728112484945048
-0.47475,1.4850003596607058,1.4724785772854896
-0.4745,1.4850003596607058,1.4728112484945048
-0.47425,1.4850003596607058,1.47314391970352
-0.474,1.4850003596607058,1.47314391970352
-0.47375,1.4850003596607058,1.4734765909125354
-0.4735,1.4850003596607058,1.4734765909125354
-0.47325,1.4853390373828066,1.4738092621215504
-0.473,1.4853390373828066,1.4738092621215504
-0.47275,1.4856777151049074,1.4738092621215504
-0.4725,1.4856777151049074,1.4738092621215504
-0.47225,1.4856777151049074,1.4738092621215504
-0.472,1.4860163928270083,1.4738092621215504
-0.47175,1.4860163928270083,1.4734765909125354
-0.4715,1.486355070549109,1.4734765909125354
-0.47125,1.486355070549109,1.47314391970352
-0.471,1.486355070549109,1.4728112484945048
-0.47075,1.4866937482712097,1.4728112484945048
-0.4705,1.486355070549109,1.4724785772854896
-0.47025,1.486355070549109,1.4721459060764743
-0.47,1.4866937482712097,1.471813234867459
-0.46975,1.4866937482712097,1.4714805636584438
-0.4695,1.4866937482712097,1.4711478924494286
-0.46925,1.4870324259933105,1.4708152212404133
-0.469,1.4870324259933105,1.470482550031398
-0.46875,1.4870324259933105,1.4701498788223828
-0.4685,1.4873711037154114,1.4694845364043523
-0.46825,1.4873711037154114,1.4694845364043523
-0.468,1.4873711037154114,1.4688191939863218
-0.46775,1.4877097814375122,1.4684865227773065
-0.4675,1.4877097814375122,1.4684865227773065
-0.46725,1.488048459159613,1.4681538515682915
-0.467,1.488048459159613,1.4678211803592762
-0.46675,1.4883871368817139,1.4678211803592762
-0.4665,1.4883871368817139,1.467488509150261
-0.46625,1.4883871368817139,1.467488509150261
-0.466,1.4887258146038147,1.467488509150261
-0.46575,1.4890644923259155,1.467488509150261
-0.4655,1.4894031700480164,1.467488509150261
-0.46525,1.4894031700480164,1.467488509150261
-0.465,1.4894031700480164,1.4671558379412457
-0.46475,1.4897418477701172,1.4671558379412457
-0.4645,1.490080525492218,1.4671558379412457
-0.46425,1.4904192032143189,1.4671558379412457
-0.464,1.4907578809364197,1.4671558379412457
-0.46375,1.4907578809364197,1.4671558379412457
-0.4635,1.4910965586585205,1.467488509150261
-0.46325,1.4910965586585205,1.467488509150261
-0.463,1.4914352363806214,1.4678211803592762
-0.46275,1.4917739141027222,1.4678211803592762
-0.4625,1.4917739141027222,1.4681538515682915
-0.46225,1.492112591824823,1.4681538515682915
-0.462,1.4924512695469239,1.4688191939863218
-0.46175,1.4924512695469239,1.4688191939863218
-0.4615,1.4924512695469239,1.4694845364043523
-0.46125,1.4927899472690247,1.4701498788223828
-0.461,1.4927899472690247,1.470482550031398
-0.46075,1.4927899472690247,1.4708152212404133
-0.4605,1.4931286249911255,1.4711478924494286
-0.46025,1.4931286249911255,1.4714805636584438
-0.46,1.4934673027132264,1.471813234867459
-0.45975,1.4934673027132264,1.4721459060764743
-0.4595,1.4931286249911255,1.4724785772854896
-0.45925,1.4934673027132264,1.47314391970352
-0.459,1.4938059804353272,1.4734765909125354
-0.45875,1.4938059804353272,1.4738092621215504
-0.4585,1.4938059804353272,1.4741419333305656
-0.45825,1.4934673027132264,1.474474604539581
-0.458,1.4938059804353272,1.4748072757485962
-0.45775,1.4938059804353272,1.4754726181666267
-0.4575,1.4938059804353272,1.4754726181666267
-0.45725,1.4938059804353272,1.475805289375642
-0.457,1.4938059804353272,1.4761379605846572
-0.45675,1.4938059804353272,1.4761379605846572
-0.4565,1.4938059804353272,1.4761379605846572
-0.45625,1.4938059804353272,1.4764706317936724
-0.456,1.4938059804353272,1.4761379605846572
-0.45575,1.4938059804353272,1.4761379605846572
-0.4555,1.4938059804353272,1.4761379605846572
-0.45525,1.4938059804353272,1.4764706317936724
-0.455,1.4934673027132264,1.4764706317936724
-0.45475,1.4931286249911255,1.4764706317936724
-0.4545,1.4931286249911255,1.4764706317936724
-0.45425,1.4931286249911255,1.4764706317936724
-0.454,1.4931286249911255,1.4761379605846572
-0.45375,1.4931286249911255,1.4761379605846572
-0.4535,1.4931286249911255,1.475805289375642
-0.45325,1.4931286249911255,1.475805289375642
-0.453,1.4927899472690247,1.4754726181666267
-0.45275,1.4924512695469239,1.4751399469576114
-0.4525,1.4924512695469239,1.4748072757485962
-0.45225,1.492112591824823,1.474474604539581
-0.452,1.492112591824823,1.474474604539581
-0.45175,1.4917739141027222,1.474474604539581
-0.4515,1.492112591824823,1.4741419333305656
-0.45125,1.4917739141027222,1.4738092621215504
-0.451,1.4914352363806214,1.4734765909125354
-0.45075,1.4910965586585205,1.47314391970352
-0.4505,1.4910965586585205,1.4728112484945048
-0.45025,1.4910965586585205,1.4721459060764743
-0.45,1.4910965586585205,1.4721459060764743
-0.44975,1.4907578809364197,1.4714805636584438
-0.4495,1.4907578809364197,1.4711478924494286
-0.44925,1.4907578809364197,1.470482550031398
-0.449,1.4907578809364197,1.470482550031398
-0.44875,1.4907578809364197,1.4701498788223828
-0.4485,1.4907578809364197,1.4694845364043523
-0.44825,1.4907578809364197,1.4694845364043523
-0.448,1.4907578809364197,1.469151865195337
-0.44775,1.4907578809364197,1.4688191939863218
-0.4475,1.4907578809364197,1.4688191939863218
-0.44725,1.4907578809364197,1.4684865227773065
-0.447,1.4907578809364197,1.4684865227773065
-0.44675,1.4907578809364197,1.4678211803592762
-0.4465,1.4910965586585205,1.4678211803592762
-0.44625,1.4910965586585205,1.467488509150261
-0.446,1.4910965586585205,1.467488509150261
-0.44575,1.4910965586585205,1.4671558379412457
-0.4455,1.4910965586585205,1.467488509150261
-0.44525,1.4914352363806214,1.467488509150261
-0.445,1.4914352363806214,1.467488509150261
-0.44475,1.4914352363806214,1.467488509150261
-0.4445,1.4914352363806214,1.467488509150261
-0.44425,1.4914352363806214,1.4681538515682915
-0.444,1.4917739141027222,1.4684865227773065
-0.44375,1.492112591824823,1.4688191939863218
-0.4435,1.492112591824823,1.469151865195337
-0.44325,1.4924512695469239,1.4694845364043523
-0.443,1.4924512695469239,1.4701498788223828
-0.44275,1.4927899472690247,1.4708152212404133
-0.4425,1.4927899472690247,1.4711478924494286
-0.44225,1.4927899472690247,1.471813234867459
-0.442,1.4931286249911255,1.471813234867459
-0.44175,1.4934673027132264,1.4728112484945048
-0.4415,1.4934673027132264,1.47314391970352
-0.44125,1.4938059804353272,1.4734765909125354
-0.441,1.494144658157428,1.4741419333305656
-0.44075,1.4938059804353272,1.474474604539581
-0.4405,1.494144658157428,1.4751399469576114
-0.44025,1.494144658157428,1.4754726181666267
-0.44,1.494144658157428,1.4754726181666267
-0.43975,1.494144658157428,1.4761379605846572
-0.4395,1.494144658157428,1.4764706317936724
-0.43925,1.4944833358795289,1.4768033030026877
-0.439,1.4944833358795289,1.477135974211703
-0.43875,1.4944833358795289,1.4774686454207182
-0.4385,1.4944833358795289,1.4778013166297335
-0.43825,1.4944833358795289,1.4781339878387487
-0.438,1.4944833358795289,1.478466659047764
-0.43775,1.4944833358795289,1.4787993302567792
-0.4375,1.4944833358795289,1.4791320014657943
-0.43725,1.4944833358795289,1.4794646726748095
-0.437,1.4944833358795289,1.4797973438838248
-0.43675,1.494144658157428,1.48013001509284
-0.4365,1.4938059804353272,1.4804626863018553
-0.43625,1.4938059804353272,1.4807953575108705
-0.436,1.4938059804353272,1.4811280287198858
-0.43575,1.4934673027132264,1.4811280287198858
-0.4355,1.4934673027132264,1.4817933711379163
-0.43525,1.4931286249911255,1.4817933711379163
-0.435,1.4931286249911255,1.4821260423469316
-0.43475,1.4927899472690247,1.4824587135559468
-0.4345,1.4927899472690247,1.4824587135559468
-0.43425,1.4927899472690247,1.4824587135559468
-0.434,1.4924512695469239,1.4824587135559468
-0.43375,1.4924512695469239,1.482791384764962
-0.4335,1.492112591824823,1.482791384764962
-0.43325,1.4917739141027222,1.4824587135559468
-0.433,1.4917739141027222,1.4824587135559468
-0.43275,1.4914352363806214,1.4824587135559468
-0.4325,1.4910965586585205,1.4821260423469316
-0.43225,1.4910965586585205,1.4821260423469316
-0.432,1.4907578809364197,1.4817933711379163
-0.43175,1.4904192032143189,1.4817933711379163
-0.4315,1.4904192032143189,1.4817933711379163
-0.43125,1.4904192032143189,1.481460699928901
-0.431,1.490080525492218,1.4811280287198858
-0.43075,1.490080525492218,1.4807953575108705
-0.4305,1.4897418477701172,1.4807953575108705
-0.43025,1.4897418477701172,1.4804626863018553
-0.43,1.4890644923259155,1.4804626863018553
-0.42975,1.4890644923259155,1.48013001509284
-0.4295,1.4887258146038147,1.48013001509284
-0.42925,1.4887258146038147,1.48013001509284
-0.429,1.4883871368817139,1.4797973438838248
-0.42875,1.4883871368817139,1.4797973438838248
-0.4285,1.4887258146038147,1.4797973438838248
-0.42825,1.4890644923259155,1.4797973438838248
-0.428,1.4890644923259155,1.48013001509284
-0.42775,1.4894031700480164,1.48013001509284
-0.4275,1.4894031700480164,1.4797973438838248
-0.42725,1.4897418477701172,1.48013001509284
-0.427,1.490080525492218,1.48013001509284
-0.42675,1.4897418477701172,1.48013001509284
-0.4265,1.490080525492218,1.4804626863018553
-0.42625,1.490080525492218,1.4807953575108705
-0.426,1.490080525492218,1.4807953575108705
-0.42575,1.490080525492218,1.4811280287198858
-0.4255,1.490080525492218,1.481460699928901
-0.42525,1.4904192032143189,1.481460699928901
-0.425,1.4904192032143189,1.4817933711379163
-0.42475,1.4907578809364197,1.4817933711379163
-0.4245,1.4910965586585205,1.4821260423469316
-0.42425,1.4910965586585205,1.4824587135559468
-0.424,1.4914352363806214,1.4831240559739773
-0.42375,1.4917739141027222,1.4834567271829926
-0.4235,1.492112591824823,1.4837893983920079
-0.42325,1.4917739141027222,1.4841220696010229
-0.423,1.4924512695469239,1.4844547408100381
-0.42275,1.4924512695469239,1.4851200832280687
-0.4225,1.4927899472690247,1.4857854256460992
-0.42225,1.4931286249911255,1.4861180968551144
-0.422,1.4931286249911255,1.486783439273145
-0.42175,1.4934673027132264,1.4871161104821602
-0.4215,1.4934673027132264,1.4874487816911754
-0.42125,1.4934673027132264,1.488114124109206
-0.421,1.4938059804353272,1.4884467953182212
-0.42075,1.4934673027132264,1.4884467953182212
-0.4205,1.4931286249911255,1.4887794665272365
-0.42025,1.4931286249911255,1.4891121377362517
-0.42,1.4927899472690247,1.4891121377362517
-0.41975,1.4927899472690247,1.4894448089452668
-0.4195,1.4927899472690247,1.4894448089452668
-0.41925,1.4924512695469239,1.489777480154282
-0.419,1.4924512695469239,1.489777480154282
-0.41875,1.4924512695469239,1.4901101513632973
-0.4185,1.492112591824823,1.4904428225723125
-0.41825,1.492112591824823,1.4904428225723125
-0.418,1.492112591824823,1.4904428225723125
-0.41775,1.492112591824823,1.4907754937813278
-0.4175,1.4914352363806214,1.4904428225723125
-0.41725,1.4910965586585205,1.4904428225723125
-0.417,1.4910965586585205,1.4901101513632973
-0.41675,1.4907578809364197,1.4901101513632973
-0.4165,1.4904192032143189,1.4901101513632973
-0.41625,1.4904192032143189,1.489777480154282
-0.416,1.4904192032143189,1.4894448089452668
-0.41575,1.4904192032143189,1.4894448089452668
-0.4155,1.4904192032143189,1.4891121377362517
-0.41525,1.4904192032143189,1.4887794665272365
-0.415,1.4904192032143189,1.4884467953182212
-0.41475,1.490080525492218,1.488114124109206
-0.4145,1.4897418477701172,1.4877814529001907
-0.41425,1.4894031700480164,1.4874487816911754
-0.414,1.4894031700480164,1.486783439273145
-0.41375,1.4887258146038147,1.4864507680641297
-0.4135,1.4887258146038147,1.4861180968551144
-0.41325,1.4887258146038147,1.485452754437084
-0.413,1.4887258146038147,1.4851200832280687
-0.41275,1.4883871368817139,1.4847874120190534
-0.4125,1.4883871368817139,1.4844547408100381
-0.41225,1.4883871368817139,1.4841220696010229
-0.412,1.488048459159613,1.4834567271829926
-0.41175,1.4877097814375122,1.4834567271829926
-0.4115,1.4873711037154114,1.482791384764962
-0.41125,1.4873711037154114,1.4824587135559468
-0.411,1.4870324259933105,1.4817933711379163
-0.41075,1.4866937482712097,1.4811280287198858
-0.4105,1.4866937482712097,1.4804626863018553
-0.41025,1.486355070549109,1.48013001509284
-0.41,1.486355070549109,1.4797973438838248
-0.40975,1.486355070549109,1.4794646726748095
-0.4095,1.486355070549109,1.4791320014657943
-0.40925,1.486355070549109,1.4787993302567792
-0.409,1.486355070549109,1.4787993302567792
-0.40875,1.486355070549109,1.478466659047764
-0.4085,1.4866937482712097,1.478466659047764
-0.40825,1.486355070549109,1.478466659047764
-0.408,1.486355070549109,1.4787993302567792
-0.40775,1.486355070549109,1.4791320014657943
-0.4075,1.4866937482712097,1.4791320014657943
-0.40725,1.4866937482712097,1.4794646726748095
-0.407,1.4870324259933105,1.4797973438838248
-0.40675,1.4873711037154114,1.48013001509284
-0.4065,1.4877097814375122,1.4804626863018553
-0.40625,1.4877097814375122,1.4807953575108705
-0.406,1.4883871368817139,1.4811280287198858
-0.40575,1.4887258146038147,1.4817933711379163
-0.4055,1.4894031700480164,1.4821260423469316
-0.40525,1.4897418477701172,1.4824587135559468
-0.405,1.4897418477701172,1.4824587135559468
-0.40475,1.4897418477701172,1.482791384764962
-0.4045,1.490080525492218,1.4831240559739773
-0.40425,1.490080525492218,1.4831240559739773
-0.404,1.490080525492218,1.4831240559739773
-0.40375,1.490080525492218,1.4834567271829926
-0.4035,1.4897418477701172,1.4834567271829926
-0.40325,1.4897418477701172,1.4834567271829926
-0.403,1.4897418477701172,1.4837893983920079
-0.40275,1.4897418477701172,1.4837893983920079
-0.4025,1.4894031700480164,1.4837893983920079
-0.40225,1.4894031700480164,1.4837893983920079
-0.402,1.4890644923259155,1.4837893983920079
-0.40175,1.4890644923259155,1.4841220696010229
-0.4015,1.4883871368817139,1.4841220696010229
-0.40125,1.4883871368817139,1.4844547408100381
-0.401,1.4883871368817139,1.4844547408100381
-0.40075,1.488048459159613,1.4844547408100381
-0.4005,1.488048459159613,1.4844547408100381
-0.40025,1.488048459159613,1.4844547408100381
-0.4,1.488048459159613,1.4844547408100381
-0.39975,1.488048459159613,1.4847874120190534
-0.3995,1.488048459159613,1.4847874120190534
-0.39925,1.4883871368817139,1.4847874120190534
-0.399,1.4883871368817139,1.4851200832280687
-0.39875,1.4887258146038147,1.4847874120190534
-0.3985,1.4890644923259155,1.4844547408100381
-0.39825,1.4890644923259155,1.4844547408100381
-0.398,1.4894031700480164,1.4837893983920079
-0.39775,1.4890644923259155,1.4831240559739773
-0.3975,1.4894031700480164,1.4824587135559468
-0.39725,1.490080525492218,1.4817933711379163
-0.397,1.490080525492218,1.4811280287198858
-0.39675,1.4904192032143189,1.4804626863018553
-0.3965,1.4904192032143189,1.48013001509284
-0.39625,1.4907578809364197,1.4794646726748095
-0.396,1.4907578809364197,1.4787993302567792
-0.39575,1.4907578809364197,1.478466659047764
-0.3955,1.4907578809364197,1.4781339878387487
-0.39525,1.4904192032143189,1.4774686454207182
-0.395,1.4904192032143189,1.477135974211703
-0.39475,1.4904192032143189,1.4764706317936724
-0.3945,1.490080525492218,1.475805289375642
-0.39425,1.4897418477701172,1.4754726181666267
-0.394,1.4897418477701172,1.4748072757485962
-0.39375,1.4897418477701172,1.474474604539581
-0.3935,1.4894031700480164,1.4738092621215504
-0.39325,1.4894031700480164,1.47314391970352
-0.393,1.4894031700480164,1.4724785772854896
-0.39275,1.4894031700480164,1.471813234867459
-0.3925,1.4894031700480164,1.4708152212404133
-0.39225,1.4894031700480164,1.4701498788223828
-0.392,1.4890644923259155,1.4694845364043523
-0.39175,1.4890644923259155,1.4688191939863218
-0.3915,1.4890644923259155,1.4684865227773065
-0.39125,1.4890644923259155,1.4678211803592762
-0.391,1.4894031700480164,1.467488509150261
-0.39075,1.4894031700480164,1.4671558379412457
-0.3905,1.4897418477701172,1.4671558379412457
-0.39025,1.4894031700480164,1.4664904955232152
-0.39,1.4897418477701172,1.4664904955232152
-0.38975,1.490080525492218,1.4664904955232152
-0.3895,1.490080525492218,1.4661578243142
-0.38925,1.4904192032143189,1.4661578243142
-0.389,1.4904192032143189,1.4661578243142
-0.38875,1.4904192032143189,1.4658251531051847
-0.3885,1.4904192032143189,1.4658251531051847
-0.38825,1.4904192032143189,1.4658251531051847
-0.388,1.4904192032143189,1.4661578243142
-0.38775,1.4907578809364197,1.4661578243142
-0.3875,1.4907578809364197,1.4661578243142
-0.38725,1.4907578809364197,1.4661578243142
-0.387,1.4907578809364197,1.4661578243142
-0.38675,1.4907578809364197,1.4664904955232152
-0.3865,1.4907578809364197,1.4668231667322305
-0.38625,1.4904192032143189,1.467488509150261
-0.386,1.4904192032143189,1.4678211803592762
-0.38575,1.4904192032143189,1.4688191939863218
-0.3855,1.4904192032143189,1.4698172076133675
-0.38525,1.4904192032143189,1.470482550031398
-0.385,1.4904192032143189,1.4714805636584438
-0.38475,1.4904192032143189,1.4724785772854896
-0.3845,1.4904192032143189,1.4734765909125354
-0.38425,1.4907578809364197,1.474474604539581
-0.384,1.4907578809364197,1.4754726181666267
-0.38375,1.4907578809364197,1.4764706317936724
-0.3835,1.4910965586585205,1.477135974211703
-0.38325,1.4910965586585205,1.4778013166297335
-0.383,1.4914352363806214,1.4791320014657943
-0.38275,1.4914352363806214,1.4797973438838248
-0.3825,1.4914352363806214,1.4804626863018553
-0.38225,1.4914352363806214,1.4811280287198858
-0.382,1.4917739141027222,1.4817933711379163
-0.38175,1.4917739141027222,1.4824587135559468
-0.3815,1.492112591824823,1.4831240559739773
-0.38125,1.4924512695469239,1.4837893983920079
-0.381,1.4927899472690247,1.4841220696010229
-0.38075,1.4931286249911255,1.4844547408100381
-0.3805,1.4931286249911255,1.4847874120190534
-0.38025,1.4934673027132264,1.4857854256460992
-0.38,1.4938059804353272,1.4861180968551144
-0.37975,1.4938059804353272,1.4864507680641297
-0.3795,1.494144658157428,1.486783439273145
-0.37925,1.494144658157428,1.4871161104821602
-0.379,1.4944833358795289,1.4871161104821602
-0.37875,1.494144658157428,1.4874487816911754
-0.3785,1.494144658157428,1.4874487816911754
-0.37825,1.494144658157428,1.4877814529001907
-0.378,1.4944833358795289,1.4877814529001907
-0.37775,1.4944833358795289,1.4877814529001907
-0.3775,1.494144658157428,1.4877814529001907
-0.37725,1.494144658157428,1.4874487816911754
-0.377,1.494144658157428,1.4871161104821602
-0.37675,1.4938059804353272,1.486783439273145
-0.3765,1.4938059804353272,1.4861180968551144
-0.37625,1.494144658157428,1.4857854256460992
-0.376,1.4938059804353272,1.485452754437084
-0.37575,1.494144658157428,1.4851200832280687
-0.3755,1.4944833358795289,1.4847874120190534
-0.37525,1.494144658157428,1.4841220696010229
-0.375,1.494144658157428,1.4837893983920079
-0.37475,1.494144658157428,1.4834567271829926
-0.3745,1.4938059804353272,1.482791384764962
-0.37425,1.4938059804353272,1.4821260423469316
-0.374,1.4934673027132264,1.4817933711379163
-0.37375,1.4934673027132264,1.4811280287198858
-0.3735,1.4934673027132264,1.4804626863018553
-0.37325,1.4934673027132264,1.4797973438838248
-0.373,1.4931286249911255,1.4787993302567792
-0.37275,1.4931286249911255,1.4781339878387487
-0.3725,1.4931286249911255,1.4774686454207182
-0.37225,1.4931286249911255,1.477135974211703
-0.372,1.4927899472690247,1.4764706317936724
-0.37175,1.4924512695469239,1.475805289375642
-0.3715,1.492112591824823,1.4754726181666267
-0.37125,1.4917739141027222,1.4748072757485962
-0.371,1.4914352363806214,1.474474604539581
-0.37075,1.4910965586585205,1.4741419333305656
-0.3705,1.4910965586585205,1.4738092621215504
-0.37025,1.4904192032143189,1.4734765909125354
-0.37,1.4904192032143189,1.4734765909125354
-0.36975,1.490080525492218,1.4734765909125354
-0.3695,1.4897418477701172,1.4734765909125354
-0.36925,1.4894031700480164,1.47314391970352
-0.369,1.4890644923259155,1.47314391970352
-0.36875,1.4887258146038147,1.4734765909125354
-0.3685,1.488048459159613,1.4738092621215504
-0.36825,1.488048459159613,1.474474604539581
-0.368,1.4877097814375122,1.4748072757485962
-0.36775,1.4877097814375122,1.4754726181666267
-0.3675,1.488048459159613,1.4761379605846572
-0.36725,1.488048459159613,1.4768033030026877
-0.367,1.4883871368817139,1.4774686454207182
-0.36675,1.4887258146038147,1.4781339878387487
-0.3665,1.4890644923259155,1.478466659047764
-0.36625,1.4894031700480164,1.4791320014657943
-0.366,1.4894031700480164,1.4797973438838248
-0.36575,1.490080525492218,1.4807953575108705
-0.3655,1.4904192032143189,1.481460699928901
-0.36525,1.4904192032143189,1.4821260423469316
-0.365,1.4904192032143189,1.4831240559739773
-0.36475,1.4907578809364197,1.4837893983920079
-0.3645,1.4907578809364197,1.4844547408100381
-0.36425,1.4907578809364197,1.4851200832280687
-0.364,1.4910965586585205,1.4861180968551144
-0.36375,1.4907578809364197,1.4864507680641297
-0.3635,1.4910965586585205,1.4871161104821602
-0.36325,1.4910965586585205,1.4874487816911754
-0.363,1.4910965586585205,1.4874487816911754
-0.36275,1.4914352363806214,1.4877814529001907
-0.3625,1.4917739141027222,1.4884467953182212
-0.36225,1.4917739141027222,1.4884467953182212
-0.362,1.492112591824823,1.4891121377362517
-0.36175,1.4924512695469239,1.4894448089452668
-0.3615,1.4927899472690247,1.4901101513632973
-0.36125,1.4931286249911255,1.4904428225723125
-0.361,1.4931286249911255,1.4907754937813278
-0.36075,1.4934673027132264,1.4907754937813278
-0.3605,1.4934673027132264,1.491108164990343
-0.36025,1.4934673027132264,1.491108164990343
-0.36,1.4934673027132264,1.4914408361993583
-0.35975,1.4934673027132264,1.4914408361993583
-0.3595,1.4934673027132264,1.4917735074083736
-0.35925,1.4934673027132264,1.4917735074083736
-0.359,1.4934673027132264,1.4921061786173888
-0.35875,1.4934673027132264,1.492438849826404
-0.3585,1.4934673027132264,1.492438849826404
-0.35825,1.4934673027132264,1.4927715210354193
-0.358,1.4938059804353272,1.4927715210354193
-0.35775,1.4938059804353272,1.4927715210354193
-0.3575,1.4938059804353272,1.4927715210354193
-0.35725,1.4934673027132264,1.4931041922444346
-0.357,1.4934673027132264,1.4931041922444346
-0.35675,1.4934673027132264,1.4931041922444346
-0.3565,1.4934673027132264,1.4934368634534498
-0.35625,1.4934673027132264,1.4931041922444346
-0.356,1.4934673027132264,1.4934368634534498
-0.35575,1.4934673027132264,1.4934368634534498
-0.3555,1.4934673027132264,1.4934368634534498
-0.35525,1.4931286249911255,1.4934368634534498
-0.355,1.4931286249911255,1.4934368634534498
-0.35475,1.4931286249911255,1.493769534662465
-0.3545,1.4927899472690247,1.4934368634534498
-0.35425,1.4927899472690247,1.4934368634534498
-0.354,1.4927899472690247,1.4934368634534498
-0.35375,1.4927899472690247,1.4934368634534498
-0.3535,1.4927899472690247,1.4931041922444346
-0.35325,1.4924512695469239,1.4931041922444346
-0.353,1.4924512695469239,1.4931041922444346
-0.35275,1.4917739141027222,1.4927715210354193
-0.3525,1.4917739141027222,1.4927715210354193
-0.35225,1.4917739141027222,1.492438849826404
-0.352,1.4914352363806214,1.4927715210354193
-0.35175,1.4910965586585205,1.492438849826404
-0.3515,1.4914352363806214,1.492438849826404
-0.35125,1.4910965586585205,1.492438849826404
-0.351,1.4910965586585205,1.492438849826404
-0.35075,1.4910965586585205,1.492438849826404
-0.3505,1.4907578809364197,1.492438849826404
-0.35025,1.4907578809364197,1.4921061786173888
-0.35,1.4904192032143189,1.4921061786173888
-0.34975,1.4907578809364197,1.4921061786173888
-0.3495,1.4904192032143189,1.4917735074083736
-0.34925,1.4907578809364197,1.4917735074083736
-0.349,1.4904192032143189,1.4917735074083736
-0.34875,1.4904192032143189,1.4914408361993583
-0.3485,1.4904192032143189,1.4914408361993583
-0.34825,1.4904192032143189,1.4914408361993583
-0.348,1.490080525492218,1.4917735074083736
-0.34775,1.4904192032143189,1.4917735074083736
-0.3475,1.4904192032143189,1.4914408361993583
-0.34725,1.4907578809364197,1.4917735074083736
-0.347,1.4907578809364197,1.4917735074083736
-0.34675,1.4907578809364197,1.4917735074083736
