#Digilent WaveForms Oscilloscope Acquisition
#Device Name: Discovery2
#Serial Number: SN:210321A35B9C
#Date Time: 2022-05-23 15:46:34.620
#Sample rate: 4000Hz
#Samples: 8000
#Trigger: Source: Channel 1 Type: Edge Condition: Rising Level: 1.47789 V Hyst.: Auto HoldOff: 100 ns
#Channel 1: Range: 20 mV/div Offset: -1.48 V Attenuation: 1 X Sample Mode: Average
#Channel 2: Range: 20 mV/div Offset: -1.48 V Attenuation: 1 X Sample Mode: Average

Time (s),Channel 1 (V),Channel 2 (V)
-0.6799999999999999,1.478679728300644,1.4764717648047119
-0.6797500000000001,1.478679728300644,1.4761390935956968
-0.6795,1.4783410505785433,1.4761390935956966
-0.6792499999999999,1.4783410505785433,1.4761390935956966
-0.679,1.4783410505785433,1.4761390935956966
-0.67875,1.4783410505785433,1.4761390935956966
-0.6785000000000001,1.4783410505785433,1.4761390935956966
-0.67825,1.4783410505785433,1.4761390935956966
-0.6779999999999999,1.4780023728564424,1.4758064223866814
-0.6777500000000001,1.478341050578543,1.4758064223866814
-0.6775,1.4783410505785433,1.4758064223866814
-0.6772499999999999,1.4783410505785433,1.4758064223866814
-0.677,1.4783410505785433,1.4758064223866814
-0.67675,1.4783410505785433,1.4758064223866814
-0.6765000000000001,1.4783410505785433,1.4758064223866814
-0.67625,1.4783410505785433,1.4758064223866814
-0.6759999999999999,1.4783410505785433,1.4758064223866814
-0.6757500000000001,1.4783410505785433,1.4758064223866814
-0.6755,1.478679728300644,1.4758064223866814
-0.6752499999999999,1.478679728300644,1.4761390935956966
-0.675,1.478679728300644,1.4761390935956966
-0.67475,1.479018406022745,1.4761390935956966
-0.6745000000000001,1.479018406022745,1.4758064223866816
-0.67425,1.479018406022745,1.4758064223866814
-0.6739999999999999,1.4793570837448458,1.4761390935956966
-0.6737500000000001,1.4793570837448458,1.4761390935956966
-0.6735,1.4793570837448458,1.4761390935956966
-0.6732499999999999,1.4793570837448458,1.4761390935956966
-0.673,1.4796957614669464,1.4761390935956966
-0.67275,1.4796957614669466,1.4761390935956966
-0.6725000000000001,1.4800344391890472,1.4761390935956966
-0.67225,1.4800344391890474,1.4764717648047117
-0.6719999999999999,1.4796957614669466,1.4764717648047119
-0.6717500000000001,1.4800344391890472,1.4764717648047119
-0.6715,1.4800344391890474,1.4764717648047119
-0.6712499999999999,1.4800344391890474,1.4764717648047119
-0.671,1.480373116911148,1.4764717648047119
-0.67075,1.4803731169111483,1.4764717648047119
-0.6705000000000001,1.4803731169111483,1.476804436013727
-0.67025,1.4803731169111483,1.4768044360137271
-0.6699999999999999,1.480711794633249,1.4768044360137271
-0.6697500000000001,1.480711794633249,1.4768044360137271
-0.6695,1.480711794633249,1.4768044360137271
-0.6692499999999999,1.480711794633249,1.4768044360137271
-0.669,1.480711794633249,1.4768044360137271
-0.66875,1.480711794633249,1.4768044360137271
-0.6685000000000001,1.4810504723553497,1.4768044360137271
-0.66825,1.48105047235535,1.4771371072227422
-0.6679999999999999,1.48105047235535,1.4771371072227424
-0.6677500000000001,1.4813891500774505,1.4771371072227424
-0.6675,1.4813891500774508,1.4768044360137271
-0.6672499999999999,1.4813891500774508,1.4771371072227424
-0.667,1.4813891500774508,1.4771371072227424
-0.66675,1.4813891500774508,1.4771371072227424
-0.6665000000000001,1.4810504723553501,1.4771371072227424
-0.66625,1.4813891500774505,1.4771371072227424
-0.6659999999999999,1.4813891500774508,1.4771371072227424
-0.6657500000000001,1.4813891500774508,1.4771371072227424
-0.6655,1.4813891500774508,1.4771371072227424
-0.6652499999999999,1.4813891500774508,1.4771371072227424
-0.665,1.4810504723553501,1.4771371072227424
-0.66475,1.48105047235535,1.4771371072227424
-0.6645000000000001,1.48105047235535,1.4771371072227424
-0.66425,1.48105047235535,1.4771371072227424
-0.6639999999999999,1.480711794633249,1.4771371072227424
-0.6637500000000001,1.480711794633249,1.4768044360137274
-0.6635,1.480711794633249,1.4768044360137271
-0.6632499999999999,1.480711794633249,1.4768044360137271
-0.663,1.4803731169111485,1.4768044360137271
-0.66275,1.4803731169111483,1.4764717648047119
-0.6625000000000001,1.4803731169111483,1.4764717648047119
-0.66225,1.4800344391890476,1.4764717648047119
-0.6619999999999999,1.4800344391890474,1.4764717648047119
-0.6617500000000001,1.4800344391890474,1.4764717648047119
-0.6615,1.4800344391890474,1.4764717648047119
-0.6612499999999999,1.4800344391890474,1.4761390935956966
-0.661,1.4796957614669468,1.4761390935956966
-0.66075,1.4796957614669466,1.4761390935956966
-0.6605000000000001,1.4796957614669466,1.4758064223866816
-0.66025,1.4796957614669466,1.4758064223866814
-0.6599999999999999,1.4793570837448458,1.4758064223866814
-0.6597500000000001,1.4790184060227451,1.4754737511776663
-0.6595,1.4793570837448458,1.4751410799686508
-0.6592499999999999,1.4793570837448458,1.475473751177666
-0.659,1.4790184060227451,1.475141079968651
-0.65875,1.479018406022745,1.4751410799686508
-0.6585000000000001,1.479018406022745,1.4751410799686508
-0.65825,1.479018406022745,1.4751410799686508
-0.6579999999999999,1.478679728300644,1.4748084087596356
-0.6577500000000001,1.4790184060227447,1.4751410799686506
-0.6575,1.478679728300644,1.4751410799686508
-0.6572499999999999,1.478679728300644,1.4751410799686508
-0.657,1.478679728300644,1.4751410799686508
-0.65675,1.479018406022745,1.4751410799686508
-0.6565000000000001,1.479018406022745,1.4751410799686508
-0.65625,1.479018406022745,1.4748084087596358
-0.6559999999999999,1.479018406022745,1.4751410799686508
-0.65575,1.4793570837448455,1.4751410799686508
-0.6555,1.4793570837448458,1.4751410799686508
-0.6552499999999999,1.4793570837448458,1.4751410799686508
-0.655,1.4793570837448458,1.4751410799686508
-0.6547499999999999,1.4793570837448458,1.4751410799686508
-0.6545000000000001,1.4796957614669464,1.4751410799686508
-0.65425,1.4796957614669466,1.4751410799686508
-0.6539999999999999,1.4800344391890474,1.4751410799686508
-0.65375,1.4800344391890474,1.4751410799686508
-0.6535,1.4803731169111483,1.4751410799686508
-0.6532499999999999,1.4803731169111483,1.4751410799686508
-0.653,1.4807117946332489,1.4751410799686508
-0.6527499999999999,1.48105047235535,1.4751410799686508
-0.6525000000000001,1.48105047235535,1.4751410799686508
-0.65225,1.4813891500774505,1.4751410799686508
-0.6519999999999999,1.4817278277995516,1.475473751177666
-0.65175,1.4817278277995516,1.475141079968651
-0.6515,1.4820665055216524,1.4751410799686508
-0.6512499999999999,1.4820665055216524,1.4751410799686508
-0.651,1.482405183243753,1.4751410799686508
-0.6507499999999999,1.4824051832437533,1.475473751177666
-0.6505000000000001,1.4824051832437533,1.475141079968651
-0.65025,1.4824051832437533,1.475473751177666
-0.6499999999999999,1.482743860965854,1.475473751177666
-0.64975,1.482743860965854,1.475473751177666
-0.6495,1.4824051832437533,1.475473751177666
-0.6492499999999999,1.4824051832437533,1.475473751177666
-0.649,1.4827438609658539,1.475473751177666
-0.6487499999999999,1.4824051832437533,1.475473751177666
-0.6485000000000001,1.4824051832437533,1.475473751177666
-0.64825,1.4824051832437533,1.4758064223866814
-0.6479999999999999,1.4824051832437533,1.4758064223866814
-0.64775,1.4824051832437533,1.4758064223866814
-0.6475,1.4824051832437533,1.4758064223866814
-0.6472500000000001,1.4827438609658539,1.4758064223866814
-0.647,1.482743860965854,1.4758064223866814
-0.6467499999999999,1.482743860965854,1.4758064223866814
-0.6465000000000001,1.482743860965854,1.4758064223866814
-0.64625,1.4824051832437533,1.4758064223866814
-0.6459999999999999,1.482743860965854,1.4758064223866814
-0.64575,1.482743860965854,1.4758064223866814
-0.6455,1.482743860965854,1.4758064223866814
-0.6452500000000001,1.482743860965854,1.4758064223866814
-0.645,1.482743860965854,1.4758064223866814
-0.6447499999999999,1.482743860965854,1.475473751177666
-0.6445000000000001,1.482743860965854,1.4758064223866811
-0.64425,1.482743860965854,1.475473751177666
-0.6439999999999999,1.482743860965854,1.475473751177666
-0.64375,1.4824051832437535,1.475473751177666
-0.6435,1.4824051832437533,1.475473751177666
-0.6432500000000001,1.4824051832437533,1.475141079968651
-0.643,1.4824051832437533,1.4751410799686508
-0.6427499999999999,1.4824051832437533,1.4748084087596356
-0.6425000000000001,1.4824051832437533,1.4748084087596356
-0.64225,1.4824051832437533,1.4748084087596356
-0.6419999999999999,1.4824051832437533,1.4744757375506203
-0.64175,1.4827438609658539,1.4748084087596354
-0.6415,1.483082538687955,1.4744757375506203
-0.6412500000000001,1.4827438609658543,1.4741430663416053
-0.641,1.4830825386879547,1.474143066341605
-0.6407499999999999,1.483082538687955,1.474143066341605
-0.6405000000000001,1.483082538687955,1.47381039513259
-0.64025,1.483082538687955,1.4738103951325898
-0.6399999999999999,1.483082538687955,1.4738103951325898
-0.63975,1.4827438609658543,1.4734777239235748
-0.6395,1.482743860965854,1.4734777239235746
-0.6392500000000001,1.482743860965854,1.4734777239235746
-0.639,1.4824051832437535,1.4731450527145595
-0.6387499999999999,1.482743860965854,1.4734777239235746
-0.6385000000000001,1.482743860965854,1.4731450527145595
-0.63825,1.482743860965854,1.4731450527145593
-0.6379999999999999,1.482743860965854,1.4731450527145593
-0.63775,1.4830825386879547,1.4734777239235743
-0.6375,1.482743860965854,1.4731450527145593
-0.6372500000000001,1.482743860965854,1.4734777239235743
-0.637,1.482743860965854,1.4734777239235746
-0.6367499999999999,1.482743860965854,1.4734777239235746
-0.6365000000000001,1.4824051832437535,1.4734777239235746
-0.63625,1.4820665055216524,1.4734777239235746
-0.6359999999999999,1.4817278277995516,1.4734777239235746
-0.63575,1.481389150077451,1.4734777239235746
-0.6355,1.4813891500774508,1.4734777239235746
-0.6352500000000001,1.4813891500774508,1.4738103951325896
-0.635,1.4813891500774508,1.4738103951325898
-0.6347499999999999,1.4813891500774508,1.4738103951325898
-0.6345000000000001,1.4817278277995514,1.4738103951325898
-0.63425,1.4817278277995516,1.4734777239235746
-0.6339999999999999,1.4817278277995516,1.4738103951325898
-0.63375,1.4820665055216522,1.4738103951325898
-0.6335,1.4820665055216524,1.4734777239235746
-0.6332500000000001,1.4820665055216524,1.4738103951325896
-0.633,1.482405183243753,1.4738103951325898
-0.6327499999999999,1.4824051832437533,1.4734777239235746
-0.6325000000000001,1.4824051832437533,1.4734777239235746
-0.63225,1.482743860965854,1.4738103951325898
-0.6319999999999999,1.482743860965854,1.4734777239235746
-0.63175,1.482743860965854,1.4734777239235746
-0.6315,1.483082538687955,1.4734777239235746
-0.6312500000000001,1.483082538687955,1.4734777239235746
-0.631,1.483082538687955,1.4738103951325896
-0.6307499999999999,1.483082538687955,1.4734777239235746
-0.6305000000000001,1.483082538687955,1.4738103951325896
-0.63025,1.4834212164100558,1.4738103951325898
-0.6299999999999999,1.4834212164100558,1.4738103951325898
-0.62975,1.4834212164100558,1.4738103951325898
-0.6295,1.4837598941321566,1.4738103951325898
-0.6292500000000001,1.4837598941321566,1.4738103951325898
-0.629,1.4840985718542572,1.4741430663416049
-0.6287499999999999,1.4840985718542574,1.474143066341605
-0.6285000000000001,1.4840985718542574,1.47381039513259
-0.62825,1.4840985718542574,1.474143066341605
-0.6279999999999999,1.4840985718542574,1.474143066341605
-0.62775,1.4840985718542574,1.474143066341605
-0.6275,1.4840985718542574,1.474143066341605
-0.6272500000000001,1.4840985718542574,1.47381039513259
-0.627,1.4844372495763578,1.4738103951325898
-0.6267499999999999,1.484437249576358,1.4738103951325898
-0.6265000000000001,1.484437249576358,1.4734777239235748
-0.62625,1.484437249576358,1.4734777239235746
-0.6259999999999999,1.484437249576358,1.4734777239235746
-0.62575,1.484437249576358,1.4731450527145595
-0.6255,1.484437249576358,1.4731450527145593
-0.6252500000000001,1.484437249576358,1.4728123815055443
-0.625,1.484437249576358,1.472812381505544
-0.6247499999999999,1.484437249576358,1.472812381505544
-0.6245,1.4847759272984586,1.472812381505544
-0.62425,1.4847759272984589,1.4724797102965288
-0.6239999999999999,1.4851146050205597,1.4724797102965288
-0.62375,1.4851146050205597,1.4724797102965288
-0.6234999999999999,1.4854532827426605,1.4724797102965288
-0.6232500000000001,1.4857919604647611,1.4724797102965288
-0.623,1.4857919604647614,1.4724797102965288
-0.6227499999999999,1.4857919604647614,1.4724797102965288
-0.6225,1.4857919604647614,1.472147039087514
-0.62225,1.4857919604647614,1.4721470390875138
-0.6219999999999999,1.4857919604647614,1.4721470390875138
-0.62175,1.4854532827426608,1.4721470390875138
-0.6214999999999999,1.4854532827426605,1.4718143678784985
-0.6212500000000001,1.48511460502056,1.4718143678784985
-0.621,1.484775927298459,1.4718143678784985
-0.6207499999999999,1.484437249576358,1.4714816966694833
-0.6205,1.484437249576358,1.4714816966694833
-0.62025,1.4840985718542574,1.4714816966694833
-0.6199999999999999,1.4840985718542574,1.4714816966694833
-0.61975,1.483421216410056,1.4714816966694833
-0.6194999999999999,1.4834212164100558,1.4718143678784985
-0.6192500000000001,1.4834212164100558,1.4718143678784985
-0.619,1.4834212164100558,1.4718143678784985
-0.6187499999999999,1.483082538687955,1.4721470390875138
-0.6185,1.4834212164100555,1.4718143678784987
-0.61825,1.4834212164100558,1.4718143678784985
-0.6179999999999999,1.4834212164100558,1.4718143678784985
-0.61775,1.4830825386879551,1.4718143678784985
-0.6174999999999999,1.483082538687955,1.4721470390875138
-0.6172500000000001,1.483082538687955,1.4718143678784987
-0.617,1.482743860965854,1.4721470390875138
-0.6167499999999999,1.482743860965854,1.4721470390875138
-0.6165,1.4830825386879547,1.4721470390875138
-0.61625,1.483082538687955,1.4718143678784985
-0.6160000000000001,1.4827438609658543,1.4718143678784985
-0.61575,1.482743860965854,1.4721470390875135
-0.6154999999999999,1.482743860965854,1.4718143678784985
-0.6152500000000001,1.482743860965854,1.4718143678784985
-0.615,1.482743860965854,1.4718143678784985
-0.6147499999999999,1.483082538687955,1.4718143678784985
-0.6145,1.483082538687955,1.4718143678784985
-0.61425,1.483082538687955,1.4718143678784985
-0.6140000000000001,1.4834212164100555,1.4718143678784985
-0.61375,1.4837598941321564,1.4718143678784985
-0.6134999999999999,1.4837598941321566,1.4718143678784985
-0.6132500000000001,1.4840985718542572,1.4718143678784985
-0.613,1.4840985718542574,1.4714816966694833
-0.6127499999999999,1.484437249576358,1.4718143678784985
-0.6125,1.484437249576358,1.4714816966694835
-0.61225,1.4847759272984589,1.4718143678784985
-0.6120000000000001,1.4847759272984589,1.4718143678784985
-0.61175,1.4847759272984589,1.4718143678784985
-0.6114999999999999,1.4851146050205597,1.4718143678784985
-0.6112500000000001,1.4851146050205597,1.4714816966694835
-0.611,1.4851146050205597,1.4718143678784985
-0.6107499999999999,1.4851146050205597,1.4714816966694833
-0.6105,1.4854532827426603,1.4718143678784983
-0.61025,1.4857919604647614,1.4718143678784985
-0.6100000000000001,1.4857919604647614,1.4718143678784985
-0.60975,1.4857919604647614,1.4718143678784985
-0.6094999999999999,1.4857919604647614,1.4721470390875138
-0.6092500000000001,1.4857919604647614,1.4721470390875138
-0.609,1.4857919604647614,1.4721470390875138
-0.6087499999999999,1.4857919604647614,1.4724797102965288
-0.6085,1.4857919604647614,1.4724797102965288
-0.60825,1.4857919604647614,1.4724797102965288
-0.6080000000000001,1.4857919604647614,1.4724797102965288
-0.60775,1.4854532827426608,1.4724797102965288
-0.6074999999999999,1.4854532827426605,1.472812381505544
-0.6072500000000001,1.4854532827426605,1.473145052714559
-0.607,1.4851146050205597,1.472812381505544
-0.6067499999999999,1.4851146050205597,1.472812381505544
-0.6065,1.4851146050205597,1.473145052714559
-0.60625,1.4851146050205597,1.4731450527145593
-0.6060000000000001,1.4851146050205597,1.4731450527145593
-0.60575,1.4851146050205597,1.4731450527145593
-0.6054999999999999,1.4847759272984589,1.4731450527145593
-0.6052500000000001,1.4847759272984589,1.4731450527145593
-0.605,1.4847759272984589,1.4734777239235746
-0.6047499999999999,1.4847759272984589,1.4734777239235746
-0.6045,1.4847759272984589,1.4734777239235746
-0.60425,1.4847759272984589,1.4734777239235746
-0.6040000000000001,1.4847759272984589,1.4734777239235746
-0.60375,1.4847759272984589,1.4734777239235746
-0.6034999999999999,1.484437249576358,1.4734777239235746
-0.6032500000000001,1.484437249576358,1.4734777239235746
-0.603,1.484437249576358,1.4734777239235746
-0.6027499999999999,1.484437249576358,1.4734777239235746
-0.6025,1.4840985718542576,1.4734777239235746
-0.60225,1.4840985718542574,1.4731450527145593
-0.6020000000000001,1.4840985718542574,1.4734777239235743
-0.60175,1.4840985718542574,1.4734777239235746
-0.6014999999999999,1.4837598941321566,1.4731450527145593
-0.6012500000000001,1.4837598941321566,1.4731450527145593
-0.601,1.4837598941321566,1.4731450527145593
-0.6007499999999999,1.4834212164100558,1.4731450527145593
-0.6005,1.4834212164100558,1.4731450527145593
-0.60025,1.4834212164100558,1.472812381505544
-0.6000000000000001,1.4834212164100558,1.472812381505544
-0.59975,1.4830825386879551,1.472812381505544
-0.5994999999999999,1.482743860965854,1.472812381505544
-0.5992500000000001,1.482743860965854,1.472479710296529
-0.599,1.482743860965854,1.4721470390875138
-0.5987499999999999,1.482743860965854,1.4724797102965288
-0.5985,1.482743860965854,1.4724797102965288
-0.59825,1.482743860965854,1.4724797102965288
-0.5980000000000001,1.482743860965854,1.472147039087514
-0.59775,1.4824051832437535,1.4721470390875138
-0.5974999999999999,1.4824051832437533,1.4721470390875138
-0.5972500000000001,1.4824051832437533,1.4721470390875138
-0.597,1.482743860965854,1.4721470390875138
-0.5967499999999999,1.482743860965854,1.4724797102965288
-0.5965,1.4824051832437535,1.472147039087514
-0.59625,1.4824051832437533,1.4721470390875138
-0.5960000000000001,1.4824051832437533,1.4721470390875138
-0.59575,1.4827438609658539,1.4721470390875138
-0.5954999999999999,1.482743860965854,1.4721470390875138
-0.5952500000000001,1.482743860965854,1.4721470390875138
-0.595,1.483082538687955,1.4721470390875138
-0.5947499999999999,1.483082538687955,1.4721470390875138
-0.5945,1.483082538687955,1.4721470390875138
-0.59425,1.483082538687955,1.4721470390875138
-0.5940000000000001,1.4834212164100555,1.4721470390875138
-0.59375,1.4830825386879551,1.4721470390875138
-0.5934999999999999,1.4834212164100558,1.4721470390875138
-0.59325,1.4834212164100558,1.4724797102965286
-0.593,1.4834212164100558,1.4724797102965288
-0.5927499999999999,1.4834212164100558,1.4724797102965288
-0.5925,1.4837598941321564,1.4724797102965288
-0.5922499999999999,1.4837598941321566,1.4724797102965288
-0.5920000000000001,1.483421216410056,1.4724797102965288
-0.59175,1.4837598941321564,1.4724797102965288
-0.5914999999999999,1.4837598941321566,1.4724797102965288
-0.59125,1.4840985718542572,1.4728123815055438
-0.591,1.4840985718542574,1.472812381505544
-0.5907499999999999,1.4837598941321566,1.4724797102965288
-0.5905,1.4840985718542572,1.4728123815055438
-0.5902499999999999,1.484437249576358,1.4731450527145593
-0.5900000000000001,1.484437249576358,1.4731450527145593
-0.58975,1.4847759272984586,1.4731450527145593
-0.5894999999999999,1.4847759272984589,1.4731450527145593
-0.58925,1.4847759272984589,1.4731450527145593
-0.589,1.4847759272984589,1.4731450527145593
-0.5887499999999999,1.4847759272984589,1.4731450527145593
-0.5885,1.4847759272984589,1.4731450527145593
-0.5882499999999999,1.4847759272984589,1.4734777239235746
-0.5880000000000001,1.4847759272984589,1.4734777239235746
-0.58775,1.4847759272984589,1.4734777239235746
-0.5874999999999999,1.484437249576358,1.4734777239235746
-0.58725,1.484437249576358,1.4734777239235746
-0.587,1.484437249576358,1.4731450527145593
-0.5867499999999999,1.484437249576358,1.4734777239235746
-0.5865,1.484437249576358,1.4734777239235746
-0.5862499999999999,1.484437249576358,1.4734777239235746
-0.5860000000000001,1.484437249576358,1.4734777239235746
-0.58575,1.484437249576358,1.4734777239235746
-0.5854999999999999,1.4840985718542574,1.4734777239235746
-0.58525,1.4844372495763578,1.4734777239235746
-0.585,1.484437249576358,1.4734777239235746
-0.5847500000000001,1.4840985718542576,1.4731450527145595
-0.5845,1.4844372495763578,1.4734777239235743
-0.5842499999999999,1.484437249576358,1.4734777239235746
-0.5840000000000001,1.4840985718542576,1.4731450527145595
-0.58375,1.4840985718542574,1.4734777239235746
-0.5834999999999999,1.4840985718542574,1.4731450527145593
-0.58325,1.4840985718542574,1.4731450527145593
-0.583,1.4840985718542574,1.4731450527145593
-0.5827500000000001,1.4837598941321568,1.4731450527145593
-0.5825,1.4837598941321566,1.4728123815055443
-0.5822499999999999,1.4834212164100558,1.472812381505544
-0.5820000000000001,1.4834212164100558,1.472812381505544
-0.58175,1.483082538687955,1.472812381505544
-0.5814999999999999,1.483082538687955,1.472812381505544
-0.58125,1.483082538687955,1.472812381505544
-0.581,1.483082538687955,1.4724797102965288
-0.5807500000000001,1.483082538687955,1.4724797102965288
-0.5805,1.483082538687955,1.4724797102965288
-0.5802499999999999,1.482743860965854,1.4721470390875138
-0.5800000000000001,1.482743860965854,1.4721470390875138
-0.57975,1.482743860965854,1.4724797102965288
-0.5794999999999999,1.4824051832437533,1.4721470390875138
-0.57925,1.4824051832437533,1.4721470390875138
-0.579,1.482743860965854,1.4718143678784985
-0.5787500000000001,1.4824051832437535,1.4718143678784985
-0.5785,1.4824051832437533,1.4718143678784985
-0.5782499999999999,1.4824051832437533,1.4718143678784985
-0.5780000000000001,1.4824051832437533,1.4714816966694835
-0.57775,1.4824051832437533,1.4718143678784985
-0.5774999999999999,1.4824051832437533,1.4714816966694833
-0.57725,1.4820665055216526,1.4714816966694833
-0.577,1.4824051832437533,1.4714816966694833
-0.5767500000000001,1.4824051832437533,1.4714816966694833
-0.5765,1.4824051832437533,1.4714816966694833
-0.5762499999999999,1.4824051832437533,1.4714816966694833
-0.5760000000000001,1.4824051832437533,1.4714816966694833
-0.57575,1.4824051832437533,1.4714816966694833
-0.5754999999999999,1.4824051832437533,1.4714816966694833
-0.57525,1.4824051832437533,1.4711490254604682
-0.575,1.4824051832437533,1.4714816966694833
-0.5747500000000001,1.4824051832437533,1.4714816966694833
-0.5745,1.4824051832437533,1.4714816966694833
-0.5742499999999999,1.482743860965854,1.4714816966694833
-0.5740000000000001,1.482743860965854,1.4714816966694833
-0.57375,1.482743860965854,1.4714816966694833
-0.5734999999999999,1.483082538687955,1.4714816966694833
-0.57325,1.483082538687955,1.4718143678784983
-0.573,1.483082538687955,1.4718143678784985
-0.5727500000000001,1.483082538687955,1.4721470390875135
-0.5725,1.4834212164100555,1.4718143678784987
-0.5722499999999999,1.4834212164100558,1.4721470390875138
-0.5720000000000001,1.4834212164100558,1.4721470390875138
-0.57175,1.4837598941321566,1.4721470390875138
-0.5714999999999999,1.4837598941321566,1.4721470390875138
-0.57125,1.4840985718542572,1.4721470390875138
-0.571,1.4837598941321566,1.4721470390875138
-0.5707500000000001,1.4837598941321566,1.4721470390875138
-0.5705,1.4840985718542572,1.4721470390875138
-0.5702499999999999,1.4840985718542574,1.4721470390875138
-0.5700000000000001,1.4840985718542574,1.4724797102965286
-0.56975,1.484437249576358,1.4724797102965288
-0.5694999999999999,1.484437249576358,1.4724797102965288
-0.56925,1.484437249576358,1.4724797102965288
-0.569,1.484437249576358,1.4724797102965288
-0.5687500000000001,1.484437249576358,1.4728123815055438
-0.5685,1.4847759272984586,1.472812381505544
-0.5682499999999999,1.4847759272984589,1.472812381505544
-0.5680000000000001,1.4847759272984589,1.472812381505544
-0.56775,1.4847759272984589,1.472812381505544
-0.5674999999999999,1.4847759272984589,1.472812381505544
-0.56725,1.4844372495763583,1.472812381505544
-0.567,1.4847759272984589,1.4731450527145593
-0.5667500000000001,1.4844372495763583,1.4728123815055443
-0.5665,1.484437249576358,1.473145052714559
-0.5662499999999999,1.484437249576358,1.4731450527145593
-0.5660000000000001,1.484437249576358,1.4731450527145593
-0.56575,1.484437249576358,1.4731450527145593
-0.5654999999999999,1.4840985718542574,1.4731450527145593
-0.56525,1.4840985718542574,1.4731450527145593
-0.565,1.4840985718542574,1.4731450527145593
-0.5647500000000001,1.4840985718542574,1.4731450527145593
-0.5645,1.4837598941321568,1.4731450527145593
-0.5642499999999999,1.4837598941321566,1.4731450527145593
-0.5640000000000001,1.4837598941321566,1.4731450527145593
-0.56375,1.4834212164100558,1.4731450527145593
-0.5634999999999999,1.4834212164100558,1.4731450527145593
-0.56325,1.4834212164100558,1.4731450527145593
-0.563,1.4834212164100558,1.4731450527145593
-0.5627500000000001,1.4834212164100558,1.4731450527145593
-0.5625,1.4834212164100558,1.4731450527145593
-0.5622499999999999,1.4834212164100558,1.472812381505544
-0.562,1.4834212164100558,1.472812381505544
-0.56175,1.4834212164100558,1.472812381505544
-0.5614999999999999,1.483082538687955,1.472812381505544
-0.56125,1.483082538687955,1.472812381505544
-0.5609999999999999,1.483082538687955,1.4724797102965288
-0.5607500000000001,1.483082538687955,1.4724797102965288
-0.5605,1.483082538687955,1.4724797102965288
-0.5602499999999999,1.483082538687955,1.4724797102965288
-0.56,1.4827438609658543,1.4724797102965288
-0.55975,1.4824051832437533,1.4721470390875138
-0.5594999999999999,1.4820665055216524,1.4724797102965288
-0.55925,1.4820665055216524,1.472147039087514
-0.5589999999999999,1.4817278277995516,1.4721470390875138
-0.5587500000000001,1.481389150077451,1.4721470390875138
-0.5585,1.4817278277995514,1.4721470390875138
-0.5582499999999999,1.4817278277995516,1.4721470390875138
-0.558,1.4817278277995516,1.4718143678784987
-0.55775,1.4813891500774508,1.4721470390875138
-0.5574999999999999,1.4813891500774508,1.4718143678784985
-0.55725,1.4817278277995514,1.4721470390875135
-0.5569999999999999,1.4817278277995516,1.4721470390875138
-0.5567500000000001,1.4817278277995516,1.4721470390875138
-0.5565,1.4817278277995516,1.4721470390875138
-0.5562499999999999,1.4820665055216524,1.4718143678784985
-0.556,1.4820665055216524,1.4721470390875135
-0.55575,1.4820665055216524,1.4721470390875138
-0.5554999999999999,1.4824051832437533,1.4718143678784985
-0.55525,1.4824051832437533,1.4718143678784985
-0.5549999999999999,1.4824051832437533,1.4721470390875138
-0.5547500000000001,1.4827438609658539,1.4721470390875138
-0.5545,1.482743860965854,1.4721470390875138
-0.5542499999999999,1.482743860965854,1.4721470390875138
-0.554,1.4830825386879547,1.4721470390875138
-0.55375,1.483082538687955,1.4721470390875138
-0.5535000000000001,1.4834212164100555,1.4721470390875138
-0.55325,1.4834212164100558,1.4721470390875138
-0.5529999999999999,1.4837598941321566,1.4724797102965288
-0.5527500000000001,1.4840985718542572,1.4724797102965288
-0.5525,1.4840985718542574,1.472812381505544
-0.5522499999999999,1.4840985718542574,1.472812381505544
-0.552,1.4844372495763578,1.472479710296529
-0.55175,1.484437249576358,1.472812381505544
-0.5515000000000001,1.4847759272984586,1.472812381505544
-0.55125,1.4847759272984589,1.472812381505544
-0.5509999999999999,1.4847759272984589,1.472812381505544
-0.5507500000000001,1.4844372495763583,1.473145052714559
-0.5505,1.4847759272984589,1.4731450527145593
-0.5502499999999999,1.4851146050205597,1.4731450527145593
-0.55,1.4851146050205597,1.4731450527145593
-0.54975,1.4851146050205597,1.4731450527145593
-0.5495000000000001,1.4854532827426603,1.4734777239235743
-0.54925,1.4854532827426605,1.4738103951325896
-0.5489999999999999,1.4857919604647614,1.4738103951325898
-0.5487500000000001,1.4857919604647614,1.4738103951325898
-0.5485,1.4857919604647614,1.4738103951325898
-0.5482499999999999,1.4861306381868622,1.474143066341605
-0.548,1.4861306381868622,1.474143066341605
-0.54775,1.4861306381868622,1.474143066341605
-0.5475000000000001,1.4864693159089628,1.4744757375506201
-0.54725,1.4868079936310636,1.4744757375506203
-0.5469999999999999,1.4871466713531647,1.4744757375506203
-0.5467500000000001,1.4874853490752653,1.4744757375506203
-0.5465,1.4874853490752655,1.4744757375506203
-0.5462499999999999,1.4874853490752655,1.4744757375506203
-0.546,1.4878240267973661,1.4744757375506203
-0.54575,1.4878240267973664,1.4744757375506203
-0.5455000000000001,1.4874853490752658,1.4744757375506203
-0.54525,1.4878240267973661,1.4744757375506203
-0.5449999999999999,1.4878240267973664,1.474143066341605
-0.5447500000000001,1.4878240267973664,1.4744757375506201
-0.5445,1.4878240267973664,1.4744757375506203
-0.5442499999999999,1.4878240267973664,1.474143066341605
-0.544,1.4878240267973664,1.474143066341605
-0.54375,1.4878240267973664,1.474143066341605
-0.5435000000000001,1.4878240267973664,1.474143066341605
-0.54325,1.4874853490752658,1.474143066341605
-0.5429999999999999,1.4871466713531647,1.4738103951325898
-0.5427500000000001,1.4874853490752653,1.4738103951325898
-0.5425,1.4871466713531647,1.4738103951325898
-0.5422499999999999,1.4871466713531647,1.4738103951325898
-0.542,1.4871466713531647,1.4738103951325898
-0.54175,1.4871466713531647,1.4738103951325898
-0.5415000000000001,1.4871466713531647,1.4738103951325898
-0.54125,1.4871466713531647,1.4738103951325898
-0.5409999999999999,1.4871466713531647,1.4734777239235746
-0.5407500000000001,1.4871466713531647,1.4734777239235746
-0.5405,1.4871466713531647,1.4734777239235746
-0.5402499999999999,1.4874853490752655,1.4734777239235746
-0.54,1.4874853490752655,1.4734777239235746
-0.53975,1.4874853490752655,1.4734777239235746
-0.5395000000000001,1.4874853490752655,1.4734777239235746
-0.53925,1.487146671353165,1.4734777239235746
-0.5389999999999999,1.4871466713531647,1.4731450527145593
-0.5387500000000001,1.4871466713531647,1.4734777239235743
-0.5385,1.4871466713531647,1.4734777239235746
-0.5382499999999999,1.4868079936310639,1.4734777239235746
-0.538,1.4871466713531645,1.4734777239235746
-0.53775,1.4868079936310639,1.4731450527145593
-0.5375000000000001,1.4868079936310639,1.4731450527145593
-0.53725,1.4868079936310639,1.4734777239235743
-0.5369999999999999,1.486469315908963,1.4731450527145593
-0.5367500000000001,1.486469315908963,1.4734777239235743
-0.5365,1.486469315908963,1.4734777239235746
-0.5362499999999999,1.4868079936310639,1.4734777239235746
-0.536,1.4868079936310639,1.4734777239235746
-0.53575,1.486469315908963,1.4734777239235746
-0.5355000000000001,1.4868079936310636,1.4734777239235746
-0.53525,1.4864693159089633,1.4734777239235746
-0.5349999999999999,1.486469315908963,1.4734777239235746
-0.5347500000000001,1.4861306381868624,1.4734777239235746
-0.5345,1.486469315908963,1.4734777239235746
-0.5342499999999999,1.4861306381868622,1.4738103951325898
-0.534,1.4861306381868622,1.4738103951325898
-0.53375,1.4861306381868622,1.4738103951325898
-0.5335000000000001,1.4857919604647616,1.4738103951325898
-0.53325,1.4857919604647614,1.4738103951325898
-0.5329999999999999,1.4857919604647614,1.474143066341605
-0.5327500000000001,1.4854532827426608,1.47381039513259
-0.5325,1.4854532827426605,1.4738103951325898
-0.5322499999999999,1.4857919604647614,1.474143066341605
-0.532,1.4857919604647614,1.474143066341605
-0.53175,1.4861306381868622,1.474143066341605
-0.5315000000000001,1.4857919604647616,1.474143066341605
-0.53125,1.4857919604647614,1.474143066341605
-0.5309999999999999,1.4861306381868622,1.474143066341605
-0.53075,1.4861306381868622,1.474143066341605
-0.5305,1.486469315908963,1.4744757375506203
-0.5302499999999999,1.486469315908963,1.4744757375506203
-0.53,1.486469315908963,1.4744757375506203
-0.5297499999999999,1.486469315908963,1.4744757375506203
-0.5295000000000001,1.4868079936310636,1.4744757375506203
-0.52925,1.4868079936310639,1.4748084087596354
-0.5289999999999999,1.4868079936310639,1.4744757375506203
-0.52875,1.4868079936310639,1.4748084087596354
-0.5285,1.4868079936310639,1.4748084087596356
-0.5282499999999999,1.486469315908963,1.4748084087596356
-0.528,1.486469315908963,1.4748084087596356
-0.5277499999999999,1.4868079936310639,1.4751410799686508
-0.5275000000000001,1.4864693159089633,1.4751410799686508
-0.52725,1.486469315908963,1.4751410799686508
-0.5269999999999999,1.486469315908963,1.4748084087596356
-0.52675,1.486469315908963,1.4751410799686506
-0.5265,1.486469315908963,1.4751410799686508
-0.5262499999999999,1.486469315908963,1.4751410799686508
-0.526,1.486469315908963,1.4751410799686508
-0.5257499999999999,1.4861306381868622,1.4751410799686508
-0.5255000000000001,1.4861306381868622,1.4751410799686508
-0.52525,1.4861306381868622,1.4751410799686508
-0.5249999999999999,1.4861306381868622,1.4751410799686508
-0.52475,1.4857919604647616,1.4751410799686508
-0.5245,1.4854532827426605,1.4751410799686508
-0.5242499999999999,1.4857919604647614,1.4751410799686508
-0.524,1.4854532827426608,1.4751410799686508
-0.5237499999999999,1.4851146050205597,1.4751410799686508
-0.5235000000000001,1.4851146050205597,1.4751410799686508
-0.52325,1.4851146050205597,1.4751410799686508
-0.5229999999999999,1.4847759272984589,1.4748084087596356
-0.52275,1.4847759272984589,1.4748084087596356
-0.5225,1.484437249576358,1.4751410799686508
-0.5222500000000001,1.484437249576358,1.4748084087596358
-0.522,1.484437249576358,1.4748084087596356
-0.5217499999999999,1.4840985718542574,1.4748084087596356
-0.5215000000000001,1.4840985718542574,1.4748084087596356
-0.52125,1.4837598941321566,1.4748084087596356
-0.5209999999999999,1.4837598941321566,1.4748084087596356
-0.52075,1.4837598941321566,1.4748084087596356
-0.5205,1.4837598941321566,1.4744757375506203
-0.5202500000000001,1.4837598941321566,1.4744757375506203
-0.52,1.4837598941321566,1.4744757375506203
-0.5197499999999999,1.483082538687955,1.4744757375506203
-0.5195000000000001,1.483082538687955,1.4741430663416053
-0.51925,1.483082538687955,1.474143066341605
-0.5189999999999999,1.483082538687955,1.474143066341605
-0.51875,1.483082538687955,1.47381039513259
-0.5185,1.482743860965854,1.4738103951325898
-0.5182500000000001,1.482743860965854,1.4741430663416049
-0.518,1.482743860965854,1.47381039513259
-0.5177499999999999,1.482743860965854,1.4738103951325898
-0.5175000000000001,1.482743860965854,1.4738103951325898
-0.51725,1.482743860965854,1.4738103951325898
-0.5169999999999999,1.482743860965854,1.4738103951325898
-0.51675,1.4824051832437535,1.4738103951325898
-0.5165,1.482743860965854,1.4738103951325898
-0.5162500000000001,1.482743860965854,1.4738103951325898
-0.516,1.482743860965854,1.4734777239235748
-0.5157499999999999,1.482743860965854,1.4738103951325898
-0.5155000000000001,1.482743860965854,1.4738103951325898
-0.51525,1.482743860965854,1.4738103951325898
-0.5149999999999999,1.482743860965854,1.4738103951325898
-0.51475,1.482743860965854,1.4738103951325898
-0.5145,1.482743860965854,1.4738103951325898
-0.5142500000000001,1.482743860965854,1.4738103951325898
-0.514,1.482743860965854,1.4738103951325898
-0.5137499999999999,1.482743860965854,1.4738103951325898
-0.5135000000000001,1.4830825386879547,1.4741430663416049
-0.51325,1.483082538687955,1.4738103951325898
-0.5129999999999999,1.483082538687955,1.474143066341605
-0.51275,1.483082538687955,1.474143066341605
-0.5125,1.483082538687955,1.474143066341605
-0.5122500000000001,1.483082538687955,1.4744757375506201
-0.512,1.483082538687955,1.4741430663416053
-0.5117499999999999,1.483082538687955,1.474143066341605
-0.5115000000000001,1.4834212164100555,1.474143066341605
-0.51125,1.4834212164100558,1.4744757375506203
-0.5109999999999999,1.4834212164100558,1.4744757375506203
-0.51075,1.4834212164100558,1.4741430663416053
-0.5105,1.4837598941321566,1.4744757375506203
-0.5102500000000001,1.4837598941321566,1.4744757375506203
-0.51,1.4837598941321566,1.4748084087596354
-0.5097499999999999,1.4840985718542574,1.4748084087596356
-0.5095000000000001,1.4840985718542574,1.4748084087596356
-0.50925,1.4840985718542574,1.4748084087596356
-0.5089999999999999,1.4840985718542574,1.4751410799686508
-0.50875,1.4844372495763578,1.4748084087596358
-0.5085,1.484437249576358,1.4751410799686508
-0.5082500000000001,1.484437249576358,1.4751410799686508
-0.508,1.484437249576358,1.4751410799686508
-0.5077499999999999,1.4847759272984589,1.4751410799686508
-0.5075000000000001,1.4847759272984589,1.4754737511776659
-0.50725,1.4847759272984589,1.475473751177666
-0.5069999999999999,1.4847759272984589,1.475473751177666
-0.50675,1.4847759272984589,1.475473751177666
-0.5065,1.4847759272984589,1.475473751177666
-0.5062500000000001,1.4847759272984589,1.4758064223866811
-0.506,1.4847759272984589,1.4758064223866814
-0.5057499999999999,1.4847759272984589,1.4758064223866814
-0.5055000000000001,1.4847759272984589,1.4758064223866814
-0.50525,1.4847759272984589,1.4758064223866814
-0.5049999999999999,1.4847759272984589,1.4758064223866814
-0.50475,1.4847759272984589,1.4758064223866814
-0.5045,1.484437249576358,1.4758064223866814
-0.5042500000000001,1.4847759272984586,1.4758064223866814
-0.504,1.4847759272984589,1.4758064223866814
-0.5037499999999999,1.484437249576358,1.4758064223866814
-0.5035000000000001,1.484437249576358,1.4758064223866814
-0.50325,1.484437249576358,1.4758064223866814
-0.5029999999999999,1.484437249576358,1.475473751177666
-0.50275,1.484437249576358,1.475473751177666
-0.5025,1.4840985718542574,1.475473751177666
-0.5022500000000001,1.4840985718542574,1.475141079968651
-0.502,1.4840985718542574,1.4751410799686508
-0.5017499999999999,1.4840985718542574,1.4751410799686508
-0.5015000000000001,1.4837598941321568,1.4748084087596358
-0.50125,1.4837598941321566,1.4748084087596356
-0.5009999999999999,1.4837598941321566,1.4748084087596356
-0.50075,1.483421216410056,1.4748084087596356
-0.5005,1.4837598941321566,1.4744757375506203
-0.5002500000000001,1.483421216410056,1.4744757375506203
-0.49999999999999994,1.4834212164100558,1.474143066341605
-0.49974999999999997,1.4834212164100558,1.4738103951325898
-0.4995,1.4834212164100558,1.474143066341605
-0.49925,1.483082538687955,1.474143066341605
-0.49899999999999994,1.483082538687955,1.4738103951325898
-0.49874999999999997,1.4824051832437533,1.4738103951325898
-0.4985,1.482743860965854,1.4734777239235746
-0.49825,1.482743860965854,1.4734777239235746
-0.49799999999999994,1.482743860965854,1.4734777239235746
-0.49774999999999997,1.4824051832437533,1.4734777239235746
-0.4975,1.4824051832437533,1.4734777239235746
-0.49725,1.4824051832437533,1.4734777239235746
-0.49699999999999994,1.4824051832437533,1.4738103951325898
-0.49674999999999997,1.4824051832437533,1.4738103951325898
-0.4965,1.4824051832437533,1.4738103951325898
-0.49625,1.4824051832437533,1.4738103951325898
-0.49599999999999994,1.4824051832437533,1.474143066341605
-0.49574999999999997,1.4824051832437533,1.4744757375506203
-0.4955,1.482743860965854,1.4744757375506203
-0.49525,1.4824051832437533,1.474143066341605
-0.49499999999999994,1.482743860965854,1.4744757375506203
-0.49474999999999997,1.482743860965854,1.4748084087596356
-0.4945,1.482743860965854,1.4748084087596356
-0.49425,1.482743860965854,1.4748084087596356
-0.49399999999999994,1.483082538687955,1.4748084087596356
-0.49374999999999997,1.483082538687955,1.4748084087596356
-0.4935,1.483082538687955,1.4748084087596356
-0.49325,1.483082538687955,1.4751410799686508
-0.49299999999999994,1.483082538687955,1.4751410799686508
-0.49274999999999997,1.483082538687955,1.4751410799686508
-0.4925,1.4834212164100558,1.4751410799686508
-0.49225,1.4834212164100558,1.475473751177666
-0.49200000000000005,1.4837598941321566,1.475473751177666
-0.49174999999999996,1.4834212164100558,1.475473751177666
-0.4915,1.4837598941321566,1.475473751177666
-0.49125,1.4837598941321566,1.475473751177666
-0.49100000000000005,1.4837598941321566,1.475473751177666
-0.49074999999999996,1.4837598941321566,1.475473751177666
-0.4905,1.4840985718542574,1.475473751177666
-0.49025,1.4840985718542574,1.4758064223866814
-0.49000000000000005,1.4847759272984589,1.4758064223866814
-0.48974999999999996,1.4847759272984589,1.4758064223866814
-0.4895,1.4847759272984589,1.4761390935956966
-0.48925,1.4847759272984589,1.4761390935956966
-0.48900000000000005,1.4851146050205597,1.4761390935956966
-0.48874999999999996,1.4851146050205597,1.4764717648047119
-0.4885,1.4851146050205597,1.4764717648047119
-0.48825,1.4851146050205597,1.4764717648047119
-0.48800000000000004,1.4851146050205597,1.4764717648047119
-0.48774999999999996,1.4851146050205597,1.4764717648047119
-0.4875,1.4854532827426605,1.4768044360137271
-0.48725,1.4854532827426605,1.4768044360137271
-0.48700000000000004,1.4851146050205597,1.4768044360137271
-0.48674999999999996,1.4854532827426605,1.4768044360137271
-0.4865,1.4851146050205597,1.4768044360137271
-0.48625,1.4851146050205597,1.4768044360137271
-0.48600000000000004,1.4851146050205597,1.4768044360137271
-0.48574999999999996,1.4851146050205597,1.4768044360137271
-0.4855,1.4851146050205597,1.4768044360137271
-0.48525,1.4851146050205597,1.4768044360137271
-0.48500000000000004,1.4851146050205597,1.4768044360137271
-0.48474999999999996,1.4854532827426605,1.4768044360137271
-0.4845,1.4854532827426605,1.4768044360137271
-0.48425,1.4854532827426605,1.4768044360137271
-0.48400000000000004,1.4851146050205597,1.4768044360137271
-0.48374999999999996,1.4854532827426605,1.4768044360137271
-0.4835,1.4854532827426605,1.4768044360137271
-0.48325,1.4854532827426605,1.4768044360137271
-0.48300000000000004,1.4854532827426605,1.4764717648047119
-0.48274999999999996,1.4851146050205597,1.4768044360137271
-0.4825,1.4851146050205597,1.4764717648047119
-0.48225,1.4851146050205597,1.4764717648047119
-0.48200000000000004,1.4851146050205597,1.4761390935956966
-0.48174999999999996,1.4847759272984589,1.4764717648047119
-0.4815,1.4847759272984589,1.4764717648047119
-0.48125,1.4847759272984589,1.4764717648047119
-0.48100000000000004,1.4847759272984589,1.4761390935956966
-0.48074999999999996,1.4847759272984589,1.4761390935956966
-0.4805,1.4847759272984589,1.4761390935956966
-0.48025,1.484437249576358,1.4761390935956966
-0.48000000000000004,1.484437249576358,1.4758064223866814
-0.47974999999999995,1.4840985718542574,1.4758064223866814
-0.4795,1.4837598941321566,1.4761390935956966
-0.47925,1.4837598941321566,1.4758064223866814
-0.47900000000000004,1.4834212164100558,1.4761390935956966
-0.47874999999999995,1.483082538687955,1.4758064223866814
-0.4785,1.4834212164100558,1.4761390935956966
-0.47825,1.483082538687955,1.4758064223866814
-0.47800000000000004,1.483082538687955,1.4761390935956966
-0.47774999999999995,1.483082538687955,1.4761390935956966
-0.4775,1.483082538687955,1.4761390935956966
-0.47725,1.483082538687955,1.4761390935956966
-0.47700000000000004,1.483082538687955,1.4761390935956966
-0.47674999999999995,1.483082538687955,1.4761390935956966
-0.4765,1.483082538687955,1.4761390935956966
-0.47625,1.4834212164100558,1.4761390935956966
-0.47600000000000003,1.4834212164100558,1.4761390935956966
-0.47574999999999995,1.4834212164100558,1.4761390935956966
-0.4755,1.4834212164100558,1.4761390935956966
-0.47525,1.4837598941321566,1.4761390935956966
-0.47500000000000003,1.4837598941321566,1.4764717648047119
-0.47474999999999995,1.4837598941321566,1.4764717648047119
-0.4745,1.4837598941321566,1.4764717648047119
-0.47425,1.4837598941321566,1.4764717648047119
-0.47400000000000003,1.4840985718542574,1.4764717648047119
-0.47374999999999995,1.4840985718542574,1.4764717648047119
-0.4735,1.4840985718542574,1.4764717648047119
-0.47325,1.4840985718542574,1.4764717648047119
-0.47300000000000003,1.4847759272984589,1.4768044360137271
-0.47274999999999995,1.4847759272984589,1.4768044360137271
-0.4725,1.4847759272984589,1.4768044360137271
-0.47225,1.4851146050205597,1.4768044360137271
-0.47200000000000003,1.4851146050205597,1.4768044360137271
-0.47174999999999995,1.4851146050205597,1.4768044360137271
-0.4715,1.4851146050205597,1.4771371072227424
-0.47125,1.4851146050205597,1.4774697784317576
-0.47100000000000003,1.4851146050205597,1.4771371072227424
-0.47074999999999995,1.4847759272984589,1.4774697784317576
-0.4705,1.4854532827426605,1.4774697784317576
-0.47025,1.4857919604647614,1.4774697784317576
-0.47000000000000003,1.4861306381868622,1.4774697784317576
-0.46974999999999995,1.4861306381868622,1.4774697784317576
-0.4695,1.4861306381868622,1.4774697784317576
-0.46925,1.486469315908963,1.4774697784317576
-0.46900000000000003,1.4868079936310639,1.4778024496407727
-0.46874999999999994,1.486469315908963,1.4778024496407727
-0.46849999999999997,1.486469315908963,1.4778024496407727
-0.46825,1.486469315908963,1.4778024496407727
-0.468,1.486469315908963,1.4778024496407727
-0.46774999999999994,1.4868079936310639,1.4778024496407727
-0.46749999999999997,1.4868079936310639,1.4778024496407727
-0.46725,1.4871466713531647,1.4778024496407727
-0.467,1.4871466713531647,1.4778024496407727
-0.46674999999999994,1.4868079936310639,1.4778024496407727
-0.46649999999999997,1.4868079936310639,1.4778024496407727
-0.46625,1.486469315908963,1.4774697784317576
-0.466,1.486469315908963,1.4774697784317576
-0.46574999999999994,1.486469315908963,1.4774697784317576
-0.46549999999999997,1.4861306381868622,1.4774697784317576
-0.46525,1.4857919604647614,1.4771371072227424
-0.465,1.4857919604647614,1.4768044360137271
-0.46474999999999994,1.4854532827426605,1.4768044360137271
-0.46449999999999997,1.4854532827426605,1.4768044360137271
-0.46425,1.4851146050205597,1.4768044360137271
-0.464,1.4851146050205597,1.4768044360137271
-0.46374999999999994,1.4847759272984589,1.4768044360137271
-0.46349999999999997,1.484437249576358,1.4764717648047119
-0.46325,1.484437249576358,1.4764717648047119
-0.463,1.484437249576358,1.4764717648047119
-0.46274999999999994,1.484437249576358,1.4764717648047119
-0.46249999999999997,1.4840985718542574,1.4764717648047119
-0.46225,1.4840985718542574,1.4764717648047119
-0.462,1.4837598941321566,1.4764717648047119
-0.46174999999999994,1.4837598941321566,1.4764717648047119
-0.46149999999999997,1.4834212164100558,1.4764717648047119
-0.46125,1.4834212164100558,1.4764717648047119
-0.461,1.483082538687955,1.4764717648047119
-0.46075000000000005,1.483082538687955,1.4764717648047119
-0.46049999999999996,1.483082538687955,1.4764717648047119
-0.46025,1.482743860965854,1.4761390935956966
-0.46,1.482743860965854,1.4761390935956966
-0.45975000000000005,1.482743860965854,1.4758064223866814
-0.45949999999999996,1.4824051832437533,1.4758064223866814
-0.45925,1.4824051832437533,1.4764717648047119
-0.459,1.4820665055216524,1.4761390935956966
-0.45875000000000005,1.4824051832437533,1.4761390935956966
-0.45849999999999996,1.4824051832437533,1.4761390935956966
-0.45825,1.4820665055216524,1.4761390935956966
-0.458,1.4824051832437533,1.4761390935956966
-0.45775000000000005,1.4820665055216524,1.4761390935956966
-0.45749999999999996,1.4820665055216524,1.4761390935956966
-0.45725,1.4817278277995516,1.4761390935956966
-0.457,1.4820665055216524,1.4761390935956966
-0.45675000000000004,1.4817278277995516,1.4761390935956966
-0.45649999999999996,1.4820665055216524,1.4761390935956966
-0.45625,1.4820665055216524,1.4761390935956966
-0.456,1.4817278277995516,1.4761390935956966
-0.45575000000000004,1.4820665055216524,1.4761390935956966
-0.45549999999999996,1.4820665055216524,1.4761390935956966
-0.45525,1.4820665055216524,1.4761390935956966
-0.455,1.4817278277995516,1.4764717648047119
-0.45475000000000004,1.4820665055216524,1.4764717648047119
-0.45449999999999996,1.4820665055216524,1.4768044360137271
-0.45425,1.4820665055216524,1.4764717648047119
-0.454,1.4820665055216524,1.4768044360137271
-0.45375000000000004,1.4820665055216524,1.4768044360137271
-0.45349999999999996,1.4820665055216524,1.4768044360137271
-0.45325,1.4820665055216524,1.4771371072227424
-0.453,1.4824051832437533,1.4771371072227424
-0.45275000000000004,1.4824051832437533,1.4771371072227424
-0.45249999999999996,1.4824051832437533,1.4771371072227424
-0.45225,1.4824051832437533,1.4771371072227424
-0.452,1.482743860965854,1.4771371072227424
-0.45175000000000004,1.4824051832437533,1.4771371072227424
-0.45149999999999996,1.4824051832437533,1.4771371072227424
-0.45125,1.4824051832437533,1.4774697784317576
-0.451,1.482743860965854,1.4774697784317576
-0.45075000000000004,1.482743860965854,1.4774697784317576
-0.45049999999999996,1.482743860965854,1.4778024496407727
-0.45025,1.482743860965854,1.4778024496407727
-0.45,1.482743860965854,1.4778024496407727
-0.44975000000000004,1.482743860965854,1.478135120849788
-0.44949999999999996,1.482743860965854,1.4778024496407727
-0.44925,1.483082538687955,1.478135120849788
-0.449,1.483082538687955,1.478135120849788
-0.44875000000000004,1.483082538687955,1.4784677920588032
-0.44849999999999995,1.483082538687955,1.4784677920588032
-0.44825,1.483082538687955,1.4784677920588032
-0.448,1.483082538687955,1.4788004632678184
-0.44775000000000004,1.483082538687955,1.4788004632678184
-0.44749999999999995,1.483082538687955,1.4791331344768337
-0.44725,1.483082538687955,1.4791331344768337
-0.447,1.483082538687955,1.4791331344768337
-0.44675000000000004,1.482743860965854,1.4788004632678184
-0.44649999999999995,1.482743860965854,1.4791331344768337
-0.44625,1.482743860965854,1.4791331344768337
-0.446,1.482743860965854,1.4791331344768337
-0.44575000000000004,1.4824051832437533,1.4791331344768337
-0.44549999999999995,1.4824051832437533,1.4791331344768337
-0.44525,1.4824051832437533,1.4791331344768337
-0.445,1.4824051832437533,1.4791331344768337
-0.44475000000000003,1.4824051832437533,1.4791331344768337
-0.44449999999999995,1.4820665055216524,1.4788004632678184
-0.44425,1.4824051832437533,1.4791331344768337
-0.444,1.4820665055216524,1.4791331344768337
-0.44375000000000003,1.4820665055216524,1.4791331344768337
-0.44349999999999995,1.4820665055216524,1.4791331344768337
-0.44325,1.4820665055216524,1.4791331344768337
-0.443,1.4820665055216524,1.4791331344768337
-0.44275000000000003,1.4820665055216524,1.4791331344768337
-0.44249999999999995,1.4820665055216524,1.4791331344768337
-0.44225,1.4820665055216524,1.4788004632678184
-0.442,1.4820665055216524,1.4788004632678184
-0.44175000000000003,1.4820665055216524,1.4788004632678184
-0.44149999999999995,1.4820665055216524,1.4788004632678184
-0.44125,1.4817278277995516,1.4788004632678184
-0.441,1.4817278277995516,1.4788004632678184
-0.44075000000000003,1.4817278277995516,1.4784677920588032
-0.44049999999999995,1.4817278277995516,1.4788004632678184
-0.44025,1.4813891500774508,1.4784677920588032
-0.44,1.4813891500774508,1.478135120849788
-0.43975000000000003,1.48105047235535,1.478135120849788
-0.43949999999999995,1.4813891500774508,1.4784677920588032
-0.43925,1.48105047235535,1.4784677920588032
-0.439,1.480711794633249,1.478135120849788
-0.43875000000000003,1.480711794633249,1.478135120849788
-0.43849999999999995,1.4803731169111483,1.478135120849788
-0.43825,1.4800344391890474,1.478135120849788
-0.438,1.4800344391890474,1.478135120849788
-0.43775000000000003,1.4800344391890474,1.478135120849788
-0.43749999999999994,1.4796957614669466,1.478135120849788
-0.43724999999999997,1.4796957614669466,1.478135120849788
-0.437,1.4796957614669466,1.4778024496407727
-0.43675,1.4796957614669466,1.478135120849788
-0.43649999999999994,1.4800344391890474,1.478135120849788
-0.43624999999999997,1.4800344391890474,1.478135120849788
-0.436,1.4803731169111483,1.478135120849788
-0.43575,1.4803731169111483,1.478135120849788
-0.43549999999999994,1.480711794633249,1.478135120849788
-0.43524999999999997,1.480711794633249,1.478135120849788
-0.435,1.480711794633249,1.478135120849788
-0.43475,1.48105047235535,1.478135120849788
-0.43449999999999994,1.48105047235535,1.4784677920588032
-0.43424999999999997,1.48105047235535,1.478135120849788
-0.434,1.4813891500774508,1.478135120849788
-0.43375,1.4813891500774508,1.4784677920588032
-0.43349999999999994,1.4813891500774508,1.4784677920588032
-0.43324999999999997,1.4813891500774508,1.4784677920588032
-0.433,1.4813891500774508,1.4788004632678184
-0.43275,1.4817278277995516,1.4784677920588032
-0.43249999999999994,1.4817278277995516,1.4784677920588032
-0.43224999999999997,1.4820665055216524,1.4784677920588032
-0.432,1.4817278277995516,1.4788004632678184
-0.43175,1.4820665055216524,1.4788004632678184
-0.43149999999999994,1.4824051832437533,1.4788004632678184
-0.43124999999999997,1.4824051832437533,1.4788004632678184
-0.431,1.4820665055216524,1.4788004632678184
-0.43075,1.4824051832437533,1.4788004632678184
-0.43049999999999994,1.482743860965854,1.4788004632678184
-0.43024999999999997,1.482743860965854,1.4791331344768337
-0.43,1.483082538687955,1.4791331344768337
-0.42975,1.483082538687955,1.4791331344768337
-0.42950000000000005,1.4834212164100558,1.4791331344768337
-0.42924999999999996,1.4834212164100558,1.4791331344768337
-0.429,1.4834212164100558,1.479465805685849
-0.42875,1.4834212164100558,1.479465805685849
-0.42850000000000005,1.4834212164100558,1.479465805685849
-0.42824999999999996,1.4837598941321566,1.479465805685849
-0.428,1.4837598941321566,1.4797984768948642
-0.42775,1.4837598941321566,1.4797984768948642
-0.42750000000000005,1.4837598941321566,1.4797984768948642
-0.42724999999999996,1.4837598941321566,1.479465805685849
-0.427,1.4837598941321566,1.4797984768948642
-0.42675,1.4837598941321566,1.4797984768948642
-0.42650000000000005,1.4834212164100558,1.4797984768948642
-0.42624999999999996,1.4834212164100558,1.4797984768948642
-0.426,1.483082538687955,1.4797984768948642
-0.42575,1.483082538687955,1.4797984768948642
-0.42550000000000004,1.483082538687955,1.4797984768948642
-0.42524999999999996,1.483082538687955,1.4797984768948642
-0.425,1.483082538687955,1.4797984768948642
-0.42475,1.482743860965854,1.4797984768948642
-0.42450000000000004,1.482743860965854,1.4797984768948642
-0.42424999999999996,1.482743860965854,1.4797984768948642
-0.424,1.4824051832437533,1.479465805685849
-0.42375,1.4824051832437533,1.4797984768948642
-0.42350000000000004,1.4824051832437533,1.479465805685849
-0.42324999999999996,1.4820665055216524,1.4797984768948642
-0.423,1.4820665055216524,1.4797984768948642
-0.42275,1.4820665055216524,1.479465805685849
-0.42250000000000004,1.4817278277995516,1.479465805685849
-0.42224999999999996,1.4817278277995516,1.479465805685849
-0.422,1.4813891500774508,1.479465805685849
-0.42175,1.4813891500774508,1.479465805685849
-0.42150000000000004,1.48105047235535,1.479465805685849
-0.42124999999999996,1.48105047235535,1.479465805685849
-0.421,1.48105047235535,1.4791331344768337
-0.42075,1.480711794633249,1.4791331344768337
-0.42050000000000004,1.4803731169111483,1.4791331344768337
-0.42024999999999996,1.4803731169111483,1.4788004632678184
-0.42,1.4803731169111483,1.4788004632678184
-0.41975,1.4803731169111483,1.4791331344768337
-0.41950000000000004,1.4796957614669466,1.4791331344768337
-0.41924999999999996,1.4796957614669466,1.4788004632678184
-0.419,1.4796957614669466,1.4788004632678184
-0.41875,1.4796957614669466,1.4788004632678184
-0.41850000000000004,1.4793570837448458,1.4784677920588032
-0.41824999999999996,1.4796957614669466,1.4788004632678184
-0.418,1.4796957614669466,1.4784677920588032
-0.41775,1.4793570837448458,1.4784677920588032
-0.41750000000000004,1.4793570837448458,1.4788004632678184
-0.41724999999999995,1.4793570837448458,1.4788004632678184
-0.417,1.4793570837448458,1.4788004632678184
-0.41675,1.4793570837448458,1.4788004632678184
-0.41650000000000004,1.4793570837448458,1.4788004632678184
-0.41624999999999995,1.4793570837448458,1.4784677920588032
-0.416,1.4793570837448458,1.4784677920588032
-0.41575,1.4793570837448458,1.4788004632678184
-0.41550000000000004,1.4793570837448458,1.4788004632678184
-0.41524999999999995,1.4793570837448458,1.4788004632678184
-0.415,1.4796957614669466,1.4788004632678184
-0.41475,1.4796957614669466,1.4788004632678184
-0.41450000000000004,1.4796957614669466,1.4788004632678184
-0.41424999999999995,1.4800344391890474,1.4788004632678184
-0.414,1.4800344391890474,1.4788004632678184
-0.41375,1.4803731169111483,1.4791331344768337
-0.41350000000000003,1.480711794633249,1.4791331344768337
-0.41324999999999995,1.4803731169111483,1.4788004632678184
-0.413,1.48105047235535,1.4791331344768337
-0.41275,1.4813891500774508,1.479465805685849
-0.41250000000000003,1.4813891500774508,1.4791331344768337
-0.41224999999999995,1.4813891500774508,1.4791331344768337
-0.412,1.4813891500774508,1.4791331344768337
-0.41175,1.4817278277995516,1.479465805685849
-0.41150000000000003,1.4817278277995516,1.479465805685849
-0.41124999999999995,1.4820665055216524,1.479465805685849
-0.411,1.4820665055216524,1.479465805685849
-0.41075,1.4820665055216524,1.479465805685849
-0.41050000000000003,1.4824051832437533,1.479465805685849
-0.41024999999999995,1.4824051832437533,1.4797984768948642
-0.41,1.4824051832437533,1.4797984768948642
-0.40975,1.4824051832437533,1.4797984768948642
-0.40950000000000003,1.4824051832437533,1.4797984768948642
-0.40924999999999995,1.4824051832437533,1.4801311481038795
-0.409,1.4824051832437533,1.4801311481038795
-0.40875,1.4820665055216524,1.4801311481038795
-0.40850000000000003,1.4820665055216524,1.4801311481038795
-0.40824999999999995,1.4820665055216524,1.4801311481038795
-0.408,1.4824051832437533,1.4801311481038795
-0.40775,1.4824051832437533,1.4804638193128947
-0.40750000000000003,1.4820665055216524,1.4804638193128947
-0.40724999999999995,1.4820665055216524,1.4801311481038795
-0.407,1.4824051832437533,1.4804638193128947
-0.40675,1.4820665055216524,1.4804638193128947
-0.40650000000000003,1.4820665055216524,1.4804638193128947
-0.40624999999999994,1.4820665055216524,1.4804638193128947
-0.40599999999999997,1.4820665055216524,1.4804638193128947
-0.40575,1.4817278277995516,1.4804638193128947
-0.4055,1.4817278277995516,1.4804638193128947
-0.40524999999999994,1.4817278277995516,1.4804638193128947
-0.40499999999999997,1.4817278277995516,1.4804638193128947
-0.40475,1.4817278277995516,1.4804638193128947
-0.4045,1.4813891500774508,1.4804638193128947
-0.40424999999999994,1.4813891500774508,1.4801311481038795
-0.40399999999999997,1.4813891500774508,1.4801311481038795
-0.40375,1.48105047235535,1.4804638193128947
-0.4035,1.48105047235535,1.4801311481038795
-0.40324999999999994,1.480711794633249,1.4801311481038795
-0.40299999999999997,1.480711794633249,1.4801311481038795
-0.40275,1.4803731169111483,1.4801311481038795
-0.4025,1.4803731169111483,1.4801311481038795
-0.40224999999999994,1.4803731169111483,1.4801311481038795
-0.40199999999999997,1.4800344391890474,1.4797984768948642
-0.40175,1.4800344391890474,1.4797984768948642
-0.4015,1.4800344391890474,1.4797984768948642
-0.40124999999999994,1.4796957614669466,1.4797984768948642
-0.40099999999999997,1.4796957614669466,1.479465805685849
-0.40075,1.4796957614669466,1.479465805685849
-0.4005,1.4796957614669466,1.479465805685849
-0.40024999999999994,1.4793570837448458,1.479465805685849
-0.39999999999999997,1.4793570837448458,1.479465805685849
-0.39975,1.4793570837448458,1.4791331344768337
-0.3995,1.479018406022745,1.4791331344768337
-0.39924999999999994,1.4793570837448458,1.4784677920588032
-0.39899999999999997,1.479018406022745,1.4788004632678184
-0.39875,1.479018406022745,1.4788004632678184
-0.3985,1.479018406022745,1.4788004632678184
-0.39825000000000005,1.478679728300644,1.4784677920588032
-0.39799999999999996,1.478679728300644,1.4784677920588032
-0.39775,1.478679728300644,1.478135120849788
-0.3975,1.478679728300644,1.4784677920588032
-0.39725000000000005,1.478679728300644,1.478135120849788
-0.39699999999999996,1.478679728300644,1.478135120849788
-0.39675,1.478679728300644,1.478135120849788
-0.3965,1.478679728300644,1.478135120849788
-0.39625000000000005,1.478679728300644,1.4778024496407727
-0.39599999999999996,1.478679728300644,1.4778024496407727
-0.39575,1.478679728300644,1.4778024496407727
-0.3955,1.479018406022745,1.478135120849788
-0.39525000000000005,1.478679728300644,1.4778024496407727
-0.39499999999999996,1.479018406022745,1.478135120849788
-0.39475,1.479018406022745,1.4778024496407727
-0.3945,1.479018406022745,1.4778024496407727
-0.39425000000000004,1.479018406022745,1.4778024496407727
-0.39399999999999996,1.4793570837448458,1.478135120849788
-0.39375,1.4793570837448458,1.478135120849788
-0.3935,1.4793570837448458,1.4778024496407727
-0.39325000000000004,1.4793570837448458,1.478135120849788
-0.39299999999999996,1.4793570837448458,1.478135120849788
-0.39275,1.4793570837448458,1.478135120849788
-0.3925,1.4793570837448458,1.4784677920588032
-0.39225000000000004,1.4793570837448458,1.4784677920588032
-0.39199999999999996,1.4796957614669466,1.4788004632678184
-0.39175,1.4796957614669466,1.4788004632678184
-0.3915,1.4796957614669466,1.4788004632678184
-0.39125000000000004,1.4796957614669466,1.4788004632678184
-0.39099999999999996,1.4796957614669466,1.4791331344768337
-0.39075,1.4800344391890474,1.4791331344768337
-0.3905,1.4800344391890474,1.4791331344768337
-0.39025000000000004,1.4800344391890474,1.4791331344768337
-0.38999999999999996,1.4800344391890474,1.4791331344768337
-0.38975,1.4800344391890474,1.4791331344768337
-0.3895,1.4800344391890474,1.4791331344768337
-0.38925000000000004,1.4803731169111483,1.479465805685849
-0.38899999999999996,1.4800344391890474,1.479465805685849
-0.38875,1.4803731169111483,1.479465805685849
-0.3885,1.4803731169111483,1.479465805685849
-0.38825000000000004,1.4803731169111483,1.4797984768948642
-0.38799999999999996,1.4800344391890474,1.479465805685849
-0.38775,1.4803731169111483,1.479465805685849
-0.3875,1.4803731169111483,1.479465805685849
-0.38725000000000004,1.4803731169111483,1.4797984768948642
-0.38699999999999996,1.4803731169111483,1.4797984768948642
-0.38675,1.4803731169111483,1.479465805685849
-0.3865,1.4803731169111483,1.4797984768948642
-0.38625000000000004,1.4803731169111483,1.4797984768948642
-0.38599999999999995,1.4803731169111483,1.4797984768948642
-0.38575,1.480711794633249,1.4797984768948642
-0.3855,1.480711794633249,1.4797984768948642
-0.38525000000000004,1.480711794633249,1.4797984768948642
-0.38499999999999995,1.480711794633249,1.4797984768948642
-0.38475,1.480711794633249,1.4797984768948642
-0.3845,1.480711794633249,1.4797984768948642
-0.38425000000000004,1.480711794633249,1.4797984768948642
-0.38399999999999995,1.480711794633249,1.4797984768948642
-0.38375,1.480711794633249,1.4797984768948642
-0.3835,1.480711794633249,1.4801311481038795
-0.38325000000000004,1.4803731169111483,1.4797984768948642
-0.38299999999999995,1.480711794633249,1.4797984768948642
-0.38275,1.4803731169111483,1.4797984768948642
-0.3825,1.4803731169111483,1.479465805685849
-0.38225000000000003,1.4803731169111483,1.479465805685849
-0.38199999999999995,1.4803731169111483,1.479465805685849
-0.38175,1.4803731169111483,1.479465805685849
-0.3815,1.4800344391890474,1.479465805685849
-0.38125000000000003,1.4800344391890474,1.479465805685849
-0.38099999999999995,1.4800344391890474,1.4791331344768337
-0.38075,1.4800344391890474,1.479465805685849
-0.3805,1.4796957614669466,1.479465805685849
-0.38025000000000003,1.4796957614669466,1.4791331344768337
-0.37999999999999995,1.4796957614669466,1.4791331344768337
-0.37975,1.4793570837448458,1.479465805685849
-0.3795,1.4796957614669466,1.4791331344768337
-0.37925000000000003,1.479018406022745,1.4791331344768337
-0.37899999999999995,1.479018406022745,1.4791331344768337
-0.37875,1.4793570837448458,1.4791331344768337
-0.3785,1.479018406022745,1.4791331344768337
-0.37825000000000003,1.4793570837448458,1.4788004632678184
-0.37799999999999995,1.479018406022745,1.4788004632678184
-0.37775,1.479018406022745,1.4788004632678184
-0.3775,1.479018406022745,1.4788004632678184
-0.37725000000000003,1.478679728300644,1.4788004632678184
-0.37699999999999995,1.478679728300644,1.4788004632678184
-0.37675,1.4783410505785433,1.4788004632678184
-0.3765,1.478679728300644,1.4788004632678184
-0.37625000000000003,1.478679728300644,1.4788004632678184
-0.37599999999999995,1.478679728300644,1.4788004632678184
-0.37575,1.479018406022745,1.4788004632678184
-0.3755,1.479018406022745,1.4791331344768337
-0.37525000000000003,1.479018406022745,1.4788004632678184
-0.37499999999999994,1.4793570837448458,1.4788004632678184
-0.37474999999999997,1.4793570837448458,1.4788004632678184
-0.3745,1.4793570837448458,1.4791331344768337
-0.37425,1.4796957614669466,1.4791331344768337
-0.37399999999999994,1.4796957614669466,1.4791331344768337
-0.37374999999999997,1.4796957614669466,1.4791331344768337
-0.3735,1.4800344391890474,1.4791331344768337
-0.37325,1.4800344391890474,1.479465805685849
-0.37299999999999994,1.4800344391890474,1.479465805685849
-0.37274999999999997,1.4800344391890474,1.479465805685849
-0.3725,1.4796957614669466,1.479465805685849
-0.37225,1.4796957614669466,1.4791331344768337
-0.37199999999999994,1.4796957614669466,1.479465805685849
-0.37174999999999997,1.4796957614669466,1.479465805685849
-0.3715,1.4796957614669466,1.4791331344768337
-0.37125,1.4796957614669466,1.479465805685849
-0.37099999999999994,1.4796957614669466,1.479465805685849
-0.37074999999999997,1.4796957614669466,1.479465805685849
-0.3705,1.4796957614669466,1.479465805685849
-0.37025,1.4800344391890474,1.4797984768948642
-0.36999999999999994,1.4803731169111483,1.4797984768948642
-0.36974999999999997,1.4803731169111483,1.4797984768948642
-0.3695,1.4803731169111483,1.4797984768948642
-0.36925,1.4803731169111483,1.4801311481038795
-0.36899999999999994,1.4803731169111483,1.4801311481038795
-0.36874999999999997,1.480711794633249,1.4801311481038795
-0.3685,1.48105047235535,1.4801311481038795
-0.36825,1.48105047235535,1.4801311481038795
-0.36799999999999994,1.4813891500774508,1.4804638193128947
-0.36774999999999997,1.4813891500774508,1.4804638193128947
-0.3675,1.4813891500774508,1.4804638193128947
-0.36725,1.4813891500774508,1.4804638193128947
-0.36700000000000005,1.48105047235535,1.4804638193128947
-0.36674999999999996,1.48105047235535,1.4804638193128947
-0.3665,1.48105047235535,1.4804638193128947
-0.36625,1.480711794633249,1.4804638193128947
-0.36600000000000005,1.48105047235535,1.4804638193128947
-0.36574999999999996,1.480711794633249,1.4804638193128947
-0.3655,1.480711794633249,1.4804638193128947
-0.36525,1.480711794633249,1.48079649052191
-0.36500000000000005,1.4803731169111483,1.48079649052191
-0.36474999999999996,1.4803731169111483,1.4804638193128947
-0.3645,1.4803731169111483,1.4804638193128947
-0.36425,1.4803731169111483,1.4804638193128947
-0.36400000000000005,1.4803731169111483,1.48079649052191
-0.36374999999999996,1.4800344391890474,1.48079649052191
-0.3635,1.4803731169111483,1.48079649052191
-0.36325,1.4800344391890474,1.48079649052191
-0.36300000000000004,1.4800344391890474,1.4804638193128947
-0.36274999999999996,1.4796957614669466,1.4804638193128947
-0.3625,1.4796957614669466,1.4804638193128947
-0.36225,1.4793570837448458,1.4804638193128947
-0.36200000000000004,1.479018406022745,1.4804638193128947
-0.36174999999999996,1.478679728300644,1.4804638193128947
-0.3615,1.478679728300644,1.4804638193128947
-0.36125,1.4783410505785433,1.4804638193128947
-0.36100000000000004,1.4783410505785433,1.4801311481038795
-0.36074999999999996,1.4783410505785433,1.4801311481038795
-0.3605,1.4780023728564424,1.4801311481038795
-0.36025,1.4783410505785433,1.4801311481038795
-0.36000000000000004,1.4780023728564424,1.4801311481038795
-0.35974999999999996,1.4780023728564424,1.4797984768948642
-0.3595,1.4780023728564424,1.4797984768948642
-0.35925,1.4780023728564424,1.479465805685849
-0.35900000000000004,1.4776636951343416,1.4797984768948642
-0.35874999999999996,1.4776636951343416,1.479465805685849
-0.3585,1.4776636951343416,1.4797984768948642
-0.35825,1.4776636951343416,1.4797984768948642
-0.35800000000000004,1.4776636951343416,1.479465805685849
-0.35774999999999996,1.4773250174122408,1.4791331344768337
-0.3575,1.4776636951343416,1.479465805685849
-0.35725,1.4776636951343416,1.479465805685849
-0.35700000000000004,1.4780023728564424,1.479465805685849
-0.35674999999999996,1.4780023728564424,1.479465805685849
-0.3565,1.4783410505785433,1.479465805685849
-0.35625,1.4780023728564424,1.4791331344768337
-0.35600000000000004,1.4783410505785433,1.4791331344768337
-0.35574999999999996,1.4783410505785433,1.479465805685849
-0.3555,1.4783410505785433,1.4791331344768337
-0.35525,1.4783410505785433,1.4791331344768337
-0.35500000000000004,1.4783410505785433,1.479465805685849
-0.35474999999999995,1.4783410505785433,1.479465805685849
-0.3545,1.4783410505785433,1.479465805685849
-0.35425,1.4783410505785433,1.4791331344768337
-0.35400000000000004,1.478679728300644,1.4791331344768337
-0.35374999999999995,1.478679728300644,1.479465805685849
-0.3535,1.478679728300644,1.4791331344768337
-0.35325,1.479018406022745,1.479465805685849
-0.35300000000000004,1.479018406022745,1.479465805685849
-0.35274999999999995,1.479018406022745,1.479465805685849
-0.3525,1.479018406022745,1.479465805685849
-0.35225,1.4793570837448458,1.479465805685849
-0.35200000000000004,1.4796957614669466,1.479465805685849
-0.35174999999999995,1.4796957614669466,1.479465805685849
-0.3515,1.4796957614669466,1.479465805685849
-0.35125,1.4800344391890474,1.479465805685849
-0.35100000000000003,1.4800344391890474,1.4797984768948642
-0.35074999999999995,1.4796957614669466,1.4797984768948642
-0.3505,1.4803731169111483,1.4797984768948642
-0.35025,1.4803731169111483,1.4797984768948642
-0.35000000000000003,1.4803731169111483,1.4797984768948642
-0.34974999999999995,1.4803731169111483,1.4797984768948642
-0.3495,1.480711794633249,1.4801311481038795
-0.34925,1.480711794633249,1.4801311481038795
-0.34900000000000003,1.480711794633249,1.4801311481038795
-0.34874999999999995,1.480711794633249,1.4801311481038795
-0.3485,1.480711794633249,1.4801311481038795
-0.34825,1.480711794633249,1.4801311481038795
-0.34800000000000003,1.480711794633249,1.4801311481038795
-0.34774999999999995,1.480711794633249,1.4801311481038795
-0.3475,1.48105047235535,1.4801311481038795
-0.34725,1.48105047235535,1.4804638193128947
-0.34700000000000003,1.48105047235535,1.4801311481038795
-0.34674999999999995,1.48105047235535,1.4801311481038795
-0.3465,1.48105047235535,1.4804638193128947
-0.34625,1.48105047235535,1.4804638193128947
-0.34600000000000003,1.4813891500774508,1.4804638193128947
-0.34574999999999995,1.4813891500774508,1.4804638193128947
-0.3455,1.4813891500774508,1.4804638193128947
-0.34525,1.4813891500774508,1.4804638193128947
-0.34500000000000003,1.4813891500774508,1.4801311481038795
-0.34474999999999995,1.4813891500774508,1.4801311481038795
-0.3445,1.4813891500774508,1.4801311481038795
-0.34425,1.4813891500774508,1.4801311481038795
-0.34400000000000003,1.4813891500774508,1.4801311481038795
-0.34374999999999994,1.4813891500774508,1.4801311481038795
-0.34349999999999997,1.48105047235535,1.4801311481038795
-0.34325,1.4813891500774508,1.4801311481038795
-0.343,1.48105047235535,1.4801311481038795
-0.34274999999999994,1.48105047235535,1.4801311481038795
-0.34249999999999997,1.48105047235535,1.4797984768948642
-0.34225,1.48105047235535,1.4797984768948642
-0.342,1.48105047235535,1.4797984768948642
-0.34174999999999994,1.480711794633249,1.479465805685849
-0.34149999999999997,1.480711794633249,1.479465805685849
-0.34125,1.4803731169111483,1.479465805685849
-0.341,1.4800344391890474,1.4791331344768337
-0.34074999999999994,1.4800344391890474,1.4791331344768337
-0.34049999999999997,1.4796957614669466,1.4791331344768337
-0.34025,1.4793570837448458,1.4788004632678184
-0.34,1.4793570837448458,1.4788004632678184
-0.33974999999999994,1.4793570837448458,1.4791331344768337
-0.33949999999999997,1.479018406022745,1.4788004632678184
-0.33925,1.479018406022745,1.4784677920588032
-0.339,1.479018406022745,1.4788004632678184
-0.33874999999999994,1.478679728300644,1.4784677920588032
-0.33849999999999997,1.4783410505785433,1.4784677920588032
-0.33825,1.4783410505785433,1.4784677920588032
-0.338,1.4783410505785433,1.4784677920588032
-0.33774999999999994,1.4780023728564424,1.478135120849788
-0.33749999999999997,1.4780023728564424,1.478135120849788
-0.33725,1.4780023728564424,1.478135120849788
-0.337,1.4780023728564424,1.478135120849788
-0.33674999999999994,1.4780023728564424,1.4784677920588032
-0.33649999999999997,1.4780023728564424,1.478135120849788
-0.33625,1.4780023728564424,1.478135120849788
-0.336,1.4780023728564424,1.478135120849788
-0.33575000000000005,1.4780023728564424,1.478135120849788
-0.33549999999999996,1.4780023728564424,1.478135120849788
-0.33525,1.4780023728564424,1.478135120849788
-0.335,1.4780023728564424,1.478135120849788
-0.33475000000000005,1.4780023728564424,1.4784677920588032
-0.33449999999999996,1.4776636951343416,1.478135120849788
-0.33425,1.4780023728564424,1.478135120849788
-0.334,1.4780023728564424,1.4784677920588032
-0.33375000000000005,1.4780023728564424,1.478135120849788
-0.33349999999999996,1.4780023728564424,1.478135120849788
-0.33325,1.4780023728564424,1.478135120849788
-0.333,1.4780023728564424,1.4784677920588032
-0.33275000000000005,1.4783410505785433,1.478135120849788
-0.33249999999999996,1.4783410505785433,1.478135120849788
-0.33225,1.4783410505785433,1.478135120849788
-0.332,1.4783410505785433,1.4784677920588032
-0.33175000000000004,1.478679728300644,1.4784677920588032
-0.33149999999999996,1.4783410505785433,1.4784677920588032
-0.33125,1.478679728300644,1.4784677920588032
-0.331,1.478679728300644,1.4784677920588032
-0.33075000000000004,1.478679728300644,1.4784677920588032
-0.33049999999999996,1.478679728300644,1.4784677920588032
-0.33025,1.478679728300644,1.4788004632678184
-0.33,1.478679728300644,1.4788004632678184
-0.32975000000000004,1.478679728300644,1.4788004632678184
-0.32949999999999996,1.479018406022745,1.4788004632678184
-0.32925,1.479018406022745,1.4791331344768337
-0.329,1.4793570837448458,1.4791331344768337
-0.32875000000000004,1.4793570837448458,1.4791331344768337
-0.32849999999999996,1.4793570837448458,1.4791331344768337
-0.32825,1.4793570837448458,1.4791331344768337
-0.328,1.4793570837448458,1.4791331344768337
-0.32775000000000004,1.4793570837448458,1.4791331344768337
-0.32749999999999996,1.4793570837448458,1.4791331344768337
-0.32725,1.4796957614669466,1.4791331344768337
-0.327,1.4793570837448458,1.4791331344768337
-0.32675000000000004,1.4796957614669466,1.4791331344768337
-0.32649999999999996,1.4793570837448458,1.4791331344768337
-0.32625,1.4793570837448458,1.4791331344768337
-0.326,1.4796957614669466,1.4791331344768337
-0.32575000000000004,1.4793570837448458,1.4791331344768337
-0.32549999999999996,1.4796957614669466,1.4791331344768337
-0.32525,1.4793570837448458,1.4791331344768337
-0.325,1.4796957614669466,1.4791331344768337
-0.32475000000000004,1.4793570837448458,1.4791331344768337
-0.32449999999999996,1.4793570837448458,1.4788004632678184
-0.32425,1.4793570837448458,1.4788004632678184
-0.324,1.4793570837448458,1.4788004632678184
-0.32375000000000004,1.4793570837448458,1.4788004632678184
-0.32349999999999995,1.479018406022745,1.4784677920588032
-0.32325,1.479018406022745,1.4784677920588032
-0.323,1.479018406022745,1.478135120849788
-0.32275000000000004,1.478679728300644,1.478135120849788
-0.32249999999999995,1.4783410505785433,1.478135120849788
-0.32225,1.4783410505785433,1.4778024496407727
-0.322,1.4780023728564424,1.4774697784317576
-0.32175000000000004,1.4780023728564424,1.4774697784317576
-0.32149999999999995,1.4776636951343416,1.4774697784317576
-0.32125,1.4776636951343416,1.4774697784317576
-0.321,1.4776636951343416,1.4774697784317576
-0.32075000000000004,1.4773250174122408,1.4774697784317576
-0.32049999999999995,1.4773250174122408,1.4771371072227424
-0.32025,1.4773250174122408,1.4771371072227424
-0.32,1.47698633969014,1.4771371072227424
-0.31975000000000003,1.47698633969014,1.4771371072227424
-0.31949999999999995,1.476647661968039,1.4771371072227424
-0.31925,1.47698633969014,1.4768044360137271
-0.319,1.476647661968039,1.4768044360137271
-0.31875000000000003,1.4763089842459383,1.4764717648047119
-0.31849999999999995,1.4763089842459383,1.4764717648047119
-0.31825,1.4763089842459383,1.4761390935956966
-0.318,1.4759703065238374,1.4764717648047119
-0.31775000000000003,1.4759703065238374,1.4764717648047119
-0.31749999999999995,1.4759703065238374,1.4764717648047119
-0.31725,1.4759703065238374,1.4764717648047119
-0.317,1.4756316288017368,1.4764717648047119
-0.31675000000000003,1.4756316288017368,1.4768044360137271
-0.31649999999999995,1.4756316288017368,1.4764717648047119
-0.31625,1.4756316288017368,1.4764717648047119
-0.316,1.4756316288017368,1.4764717648047119
-0.31575000000000003,1.4756316288017368,1.4764717648047119
-0.31549999999999995,1.4756316288017368,1.4764717648047119
-0.31525,1.4759703065238374,1.4764717648047119
-0.315,1.4756316288017368,1.4764717648047119
-0.31475000000000003,1.4759703065238374,1.4764717648047119
-0.31449999999999995,1.4759703065238374,1.4768044360137271
-0.31425,1.4759703065238374,1.4768044360137271
-0.314,1.4759703065238374,1.4768044360137271
-0.31375000000000003,1.4763089842459383,1.4771371072227424
-0.31349999999999995,1.4759703065238374,1.4771371072227424
-0.31325,1.4759703065238374,1.4771371072227424
-0.313,1.4763089842459383,1.4771371072227424
-0.31275000000000003,1.4763089842459383,1.4771371072227424
-0.31249999999999994,1.4763089842459383,1.4768044360137271
-0.31224999999999997,1.476647661968039,1.4771371072227424
-0.312,1.476647661968039,1.4774697784317576
-0.31175,1.476647661968039,1.4774697784317576
-0.31149999999999994,1.476647661968039,1.4774697784317576
-0.31124999999999997,1.47698633969014,1.4774697784317576
-0.311,1.47698633969014,1.4774697784317576
-0.31075,1.47698633969014,1.4774697784317576
-0.31049999999999994,1.47698633969014,1.4774697784317576
-0.31024999999999997,1.47698633969014,1.4778024496407727
-0.31,1.47698633969014,1.4778024496407727
-0.30975,1.4773250174122408,1.4778024496407727
-0.30949999999999994,1.4773250174122408,1.4778024496407727
-0.30924999999999997,1.4773250174122408,1.4778024496407727
-0.309,1.4773250174122408,1.478135120849788
-0.30875,1.4773250174122408,1.4784677920588032
-0.30849999999999994,1.4773250174122408,1.478135120849788
-0.30824999999999997,1.4773250174122408,1.4784677920588032
-0.308,1.4773250174122408,1.4784677920588032
-0.30775,1.4773250174122408,1.4784677920588032
-0.30749999999999994,1.4773250174122408,1.4784677920588032
-0.30724999999999997,1.4773250174122408,1.4784677920588032
-0.307,1.4773250174122408,1.4784677920588032
-0.30675,1.4773250174122408,1.4784677920588032
-0.30649999999999994,1.4773250174122408,1.4788004632678184
-0.30624999999999997,1.4773250174122408,1.4788004632678184
-0.306,1.4773250174122408,1.4788004632678184
-0.30575,1.4773250174122408,1.4788004632678184
-0.30549999999999994,1.4773250174122408,1.4788004632678184
-0.30524999999999997,1.47698633969014,1.4788004632678184
-0.305,1.47698633969014,1.4788004632678184
-0.30475,1.47698633969014,1.4788004632678184
-0.30450000000000005,1.47698633969014,1.4788004632678184
-0.30424999999999996,1.476647661968039,1.4788004632678184
-0.304,1.476647661968039,1.4788004632678184
-0.30375,1.476647661968039,1.4788004632678184
-0.30350000000000005,1.4763089842459383,1.4788004632678184
-0.30324999999999996,1.4763089842459383,1.4788004632678184
-0.303,1.4759703065238374,1.4784677920588032
-0.30275,1.4759703065238374,1.4784677920588032
-0.30250000000000005,1.4759703065238374,1.4784677920588032
-0.30224999999999996,1.4756316288017368,1.4784677920588032
-0.302,1.4756316288017368,1.4784677920588032
-0.30175,1.4756316288017368,1.4784677920588032
-0.30150000000000005,1.475292951079636,1.4784677920588032
-0.30124999999999996,1.475292951079636,1.4784677920588032
-0.301,1.475292951079636,1.4784677920588032
-0.30075,1.4749542733575352,1.478135120849788
-0.30050000000000004,1.4749542733575352,1.478135120849788
-0.30024999999999996,1.4749542733575352,1.4778024496407727
-0.3,1.4746155956354343,1.4778024496407727
-0.29975,1.4746155956354343,1.4778024496407727
-0.29950000000000004,1.4746155956354343,1.4774697784317576
-0.29924999999999996,1.4746155956354343,1.4778024496407727
-0.299,1.4742769179133335,1.4774697784317576
-0.29875,1.4742769179133335,1.4774697784317576
-0.29850000000000004,1.4739382401912327,1.4774697784317576
-0.29824999999999996,1.4739382401912327,1.4774697784317576
-0.298,1.4739382401912327,1.4774697784317576
-0.29775,1.4735995624691318,1.4771371072227424
-0.29750000000000004,1.4735995624691318,1.4771371072227424
-0.29724999999999996,1.4735995624691318,1.4771371072227424
-0.297,1.473260884747031,1.4771371072227424
-0.29675,1.4735995624691318,1.4774697784317576
-0.29650000000000004,1.4735995624691318,1.4771371072227424
-0.29624999999999996,1.4739382401912327,1.4774697784317576
-0.296,1.4735995624691318,1.4771371072227424
-0.29575,1.4735995624691318,1.4771371072227424
-0.29550000000000004,1.4739382401912327,1.4771371072227424
-0.29524999999999996,1.4735995624691318,1.4771371072227424
-0.295,1.4739382401912327,1.4774697784317576
-0.29475,1.4739382401912327,1.4771371072227424
-0.29450000000000004,1.4739382401912327,1.4774697784317576
-0.29424999999999996,1.4742769179133335,1.4774697784317576
-0.294,1.4746155956354343,1.4774697784317576
-0.29375,1.4746155956354343,1.4774697784317576
-0.29350000000000004,1.4749542733575352,1.4771371072227424
-0.29324999999999996,1.4749542733575352,1.4774697784317576
-0.293,1.475292951079636,1.4774697784317576
-0.29275,1.475292951079636,1.4774697784317576
-0.29250000000000004,1.475292951079636,1.4778024496407727
-0.29224999999999995,1.4756316288017368,1.4778024496407727
-0.292,1.4756316288017368,1.4778024496407727
-0.29175,1.4759703065238374,1.4778024496407727
-0.29150000000000004,1.4756316288017368,1.4778024496407727
-0.29124999999999995,1.4759703065238374,1.4778024496407727
-0.291,1.4759703065238374,1.4778024496407727
-0.29075,1.4763089842459383,1.478135120849788
-0.29050000000000004,1.4763089842459383,1.4778024496407727
-0.29024999999999995,1.4763089842459383,1.478135120849788
-0.29,1.4763089842459383,1.478135120849788
-0.28975,1.476647661968039,1.4784677920588032
-0.28950000000000004,1.476647661968039,1.478135120849788
-0.28924999999999995,1.4763089842459383,1.478135120849788
-0.289,1.476647661968039,1.478135120849788
-0.28875,1.476647661968039,1.478135120849788
-0.28850000000000003,1.476647661968039,1.478135120849788
-0.28824999999999995,1.476647661968039,1.4784677920588032
-0.288,1.476647661968039,1.4784677920588032
-0.28775,1.476647661968039,1.4784677920588032
-0.28750000000000003,1.476647661968039,1.4784677920588032
-0.28724999999999995,1.4763089842459383,1.4784677920588032
-0.287,1.4763089842459383,1.4784677920588032
-0.28675,1.4763089842459383,1.4784677920588032
-0.28650000000000003,1.4763089842459383,1.4784677920588032
-0.28624999999999995,1.4763089842459383,1.4788004632678184
-0.286,1.4763089842459383,1.4784677920588032
-0.28575,1.4763089842459383,1.4784677920588032
-0.28550000000000003,1.4763089842459383,1.4784677920588032
-0.28524999999999995,1.476647661968039,1.4788004632678184
-0.285,1.476647661968039,1.4784677920588032
-0.28475,1.4763089842459383,1.4784677920588032
-0.28450000000000003,1.4763089842459383,1.4784677920588032
-0.28424999999999995,1.4763089842459383,1.4784677920588032
-0.284,1.4763089842459383,1.4784677920588032
-0.28375,1.4763089842459383,1.4784677920588032
-0.28350000000000003,1.4763089842459383,1.4784677920588032
-0.28324999999999995,1.476647661968039,1.4784677920588032
-0.283,1.4763089842459383,1.4784677920588032
-0.28275,1.476647661968039,1.478135120849788
-0.28250000000000003,1.476647661968039,1.478135120849788
-0.28224999999999995,1.4763089842459383,1.478135120849788
-0.282,1.4763089842459383,1.4778024496407727
-0.28175,1.4763089842459383,1.478135120849788
-0.28150000000000003,1.4763089842459383,1.4778024496407727
-0.28124999999999994,1.4759703065238374,1.4778024496407727
-0.28099999999999997,1.4763089842459383,1.4778024496407727
-0.28075,1.4763089842459383,1.4778024496407727
-0.2805,1.4763089842459383,1.4778024496407727
-0.28024999999999994,1.4763089842459383,1.4774697784317576
-0.27999999999999997,1.4763089842459383,1.4774697784317576
-0.27975,1.4763089842459383,1.4774697784317576
-0.2795,1.4763089842459383,1.4774697784317576
-0.27924999999999994,1.4763089842459383,1.4771371072227424
-0.27899999999999997,1.476647661968039,1.4771371072227424
-0.27875,1.476647661968039,1.4768044360137271
-0.2785,1.476647661968039,1.4771371072227424
-0.27824999999999994,1.4763089842459383,1.4768044360137271
-0.27799999999999997,1.4759703065238374,1.4768044360137271
-0.27775,1.4756316288017368,1.4768044360137271
-0.2775,1.4756316288017368,1.4768044360137271
-0.27724999999999994,1.475292951079636,1.4768044360137271
-0.27699999999999997,1.4749542733575352,1.4768044360137271
-0.27675,1.4749542733575352,1.4771371072227424
-0.2765,1.4749542733575352,1.4768044360137271
-0.27624999999999994,1.4749542733575352,1.4768044360137271
-0.27599999999999997,1.4749542733575352,1.4768044360137271
-0.27575,1.4746155956354343,1.4768044360137271
-0.2755,1.4749542733575352,1.4768044360137271
-0.27524999999999994,1.4749542733575352,1.4768044360137271
-0.27499999999999997,1.475292951079636,1.4768044360137271
-0.27475,1.475292951079636,1.4768044360137271
-0.2745,1.475292951079636,1.4768044360137271
-0.27424999999999994,1.475292951079636,1.4768044360137271
-0.27399999999999997,1.475292951079636,1.4768044360137271
-0.27375,1.4756316288017368,1.4771371072227424
-0.2735,1.4759703065238374,1.4771371072227424
-0.27325000000000005,1.4759703065238374,1.4771371072227424
-0.27299999999999996,1.4759703065238374,1.4771371072227424
-0.27275,1.4759703065238374,1.4774697784317576
-0.2725,1.4759703065238374,1.4774697784317576
-0.27225000000000005,1.4759703065238374,1.4774697784317576
-0.27199999999999996,1.4759703065238374,1.4774697784317576
-0.27175,1.4763089842459383,1.4774697784317576
-0.2715,1.4759703065238374,1.4774697784317576
-0.27125000000000005,1.4759703065238374,1.4778024496407727
-0.27099999999999996,1.4759703065238374,1.4774697784317576
-0.27075,1.4759703065238374,1.4774697784317576
-0.2705,1.4756316288017368,1.4774697784317576
-0.27025000000000005,1.4756316288017368,1.4778024496407727
-0.26999999999999996,1.4756316288017368,1.4778024496407727
-0.26975,1.4756316288017368,1.4778024496407727
-0.2695,1.4756316288017368,1.478135120849788
-0.26925000000000004,1.4759703065238374,1.4778024496407727
-0.26899999999999996,1.4759703065238374,1.478135120849788
-0.26875,1.4759703065238374,1.478135120849788
-0.2685,1.4759703065238374,1.478135120849788
-0.26825000000000004,1.4759703065238374,1.4784677920588032
-0.26799999999999996,1.4759703065238374,1.478135120849788
-0.26775,1.4759703065238374,1.4784677920588032
-0.2675,1.4759703065238374,1.4784677920588032
-0.26725000000000004,1.4759703065238374,1.4788004632678184
-0.26699999999999996,1.4756316288017368,1.4784677920588032
-0.26675,1.4756316288017368,1.4788004632678184
-0.2665,1.475292951079636,1.4788004632678184
-0.26625000000000004,1.475292951079636,1.4788004632678184
-0.26599999999999996,1.475292951079636,1.4788004632678184
-0.26575,1.475292951079636,1.4788004632678184
-0.2655,1.4756316288017368,1.4788004632678184
-0.26525000000000004,1.4756316288017368,1.4788004632678184
-0.26499999999999996,1.4759703065238374,1.4784677920588032
-0.26475,1.4759703065238374,1.4788004632678184
-0.2645,1.4759703065238374,1.4788004632678184
-0.26425000000000004,1.4759703065238374,1.4788004632678184
-0.26399999999999996,1.4763089842459383,1.4788004632678184
-0.26375,1.4759703065238374,1.4788004632678184
-0.2635,1.4763089842459383,1.4784677920588032
-0.26325000000000004,1.4759703065238374,1.4784677920588032
-0.26299999999999996,1.4756316288017368,1.4784677920588032
-0.26275,1.475292951079636,1.4784677920588032
-0.2625,1.475292951079636,1.4784677920588032
-0.26225000000000004,1.475292951079636,1.478135120849788
-0.26199999999999996,1.475292951079636,1.478135120849788
-0.26175,1.4756316288017368,1.478135120849788
-0.2615,1.4763089842459383,1.478135120849788
-0.26125000000000004,1.4763089842459383,1.4778024496407727
-0.26099999999999995,1.47698633969014,1.4778024496407727
-0.26075,1.4773250174122408,1.4778024496407727
-0.2605,1.4776636951343416,1.4778024496407727
-0.26025000000000004,1.4780023728564424,1.4774697784317576
-0.25999999999999995,1.4783410505785433,1.4774697784317576
-0.25975,1.478679728300644,1.4774697784317576
-0.2595,1.479018406022745,1.4768044360137271
-0.25925000000000004,1.4796957614669466,1.4771371072227424
-0.25899999999999995,1.4803731169111483,1.4774697784317576
-0.25875,1.48105047235535,1.4768044360137271
-0.2585,1.4813891500774508,1.4771371072227424
-0.25825000000000004,1.4824051832437533,1.4771371072227424
-0.25799999999999995,1.483082538687955,1.4768044360137271
-0.25775,1.4840985718542574,1.4771371072227424
-0.2575,1.4847759272984589,1.4768044360137271
-0.25725000000000003,1.4854532827426605,1.4768044360137271
-0.25699999999999995,1.4857919604647614,1.4768044360137271
-0.25675,1.486469315908963,1.4768044360137271
-0.2565,1.4871466713531647,1.4768044360137271
-0.25625000000000003,1.4874853490752655,1.4768044360137271
-0.25599999999999995,1.4878240267973664,1.4768044360137271
-0.25575,1.4881627045194672,1.4768044360137271
-0.2555,1.488501382241568,1.4768044360137271
-0.25525000000000003,1.4881627045194672,1.4764717648047119
-0.25499999999999995,1.488501382241568,1.4768044360137271
-0.25475,1.488501382241568,1.4764717648047119
-0.2545,1.488501382241568,1.4764717648047119
-0.25425000000000003,1.488501382241568,1.4768044360137271
-0.25399999999999995,1.488501382241568,1.4768044360137271
-0.25375,1.488501382241568,1.4768044360137271
-0.2535,1.4881627045194672,1.4768044360137271
-0.25325000000000003,1.4881627045194672,1.4768044360137271
-0.25299999999999995,1.4881627045194672,1.4768044360137271
-0.25275,1.4878240267973664,1.4771371072227424
-0.2525,1.4874853490752655,1.4771371072227424
-0.25225000000000003,1.4871466713531647,1.4771371072227424
-0.25199999999999995,1.4868079936310639,1.4771371072227424
-0.25175,1.486469315908963,1.4774697784317576
-0.2515,1.4861306381868622,1.4774697784317576
-0.25125000000000003,1.4854532827426605,1.4778024496407727
-0.25099999999999995,1.4854532827426605,1.4778024496407727
-0.25075,1.4851146050205597,1.4778024496407727
-0.2505,1.4851146050205597,1.4778024496407727
-0.25025000000000003,1.4851146050205597,1.4778024496407727
-0.24999999999999994,1.4854532827426605,1.478135120849788
-0.24974999999999997,1.4857919604647614,1.478135120849788
-0.2495,1.4861306381868622,1.478135120849788
-0.24925000000000003,1.4861306381868622,1.478135120849788
-0.24899999999999994,1.486469315908963,1.4784677920588032
-0.24874999999999997,1.4871466713531647,1.4784677920588032
-0.2485,1.4874853490752655,1.4784677920588032
-0.24825000000000003,1.4881627045194672,1.4788004632678184
-0.24799999999999994,1.488501382241568,1.4784677920588032
-0.24774999999999997,1.4888400599636689,1.4788004632678184
-0.2475,1.4891787376857697,1.4788004632678184
-0.24725000000000003,1.4895174154078705,1.4788004632678184
-0.24699999999999994,1.4898560931299714,1.4788004632678184
-0.24674999999999997,1.4898560931299714,1.4788004632678184
-0.2465,1.4901947708520722,1.4791331344768337
-0.24625000000000002,1.4901947708520722,1.4791331344768337
-0.24599999999999994,1.490533448574173,1.4791331344768337
-0.24574999999999997,1.4908721262962739,1.4791331344768337
-0.2455,1.4912108040183747,1.4791331344768337
-0.24525000000000002,1.4918881594625764,1.4791331344768337
-0.24499999999999994,1.4925655149067778,1.4791331344768337
-0.24474999999999997,1.4932428703509795,1.4791331344768337
-0.2445,1.494258903517282,1.4791331344768337
-0.24425000000000002,1.4949362589614836,1.4791331344768337
-0.24399999999999994,1.4959522921277861,1.4791331344768337
-0.24374999999999997,1.496290969849887,1.479465805685849
-0.2435,1.496290969849887,1.479465805685849
-0.24325000000000002,1.4966296475719878,1.479465805685849
-0.24299999999999994,1.4966296475719878,1.4791331344768337
-0.24274999999999997,1.4966296475719878,1.479465805685849
-0.2425,1.4966296475719878,1.4791331344768337
-0.24225000000000002,1.496290969849887,1.4791331344768337
-0.24200000000000005,1.496290969849887,1.4791331344768337
-0.24174999999999996,1.496290969849887,1.4791331344768337
-0.2415,1.496290969849887,1.4788004632678184
-0.24125000000000002,1.496290969849887,1.4788004632678184
-0.24100000000000005,1.4959522921277861,1.4788004632678184
-0.24074999999999996,1.4956136144056853,1.4784677920588032
-0.2405,1.4959522921277861,1.4788004632678184
-0.24025000000000002,1.4956136144056853,1.4784677920588032
-0.24000000000000005,1.4956136144056853,1.4784677920588032
-0.23974999999999996,1.4956136144056853,1.4784677920588032
-0.2395,1.4952749366835845,1.478135120849788
-0.23925000000000002,1.4956136144056853,1.478135120849788
-0.23900000000000005,1.4956136144056853,1.478135120849788
-0.23874999999999996,1.4956136144056853,1.478135120849788
-0.2385,1.4956136144056853,1.478135120849788
-0.23825000000000002,1.4959522921277861,1.4778024496407727
-0.23800000000000004,1.496290969849887,1.4778024496407727
-0.23774999999999996,1.4969683252940886,1.4778024496407727
-0.2375,1.4976456807382903,1.478135120849788
-0.23725000000000002,1.4986617139045928,1.478135120849788
-0.23700000000000004,1.4996777470708953,1.478135120849788
-0.23674999999999996,1.5006937802371976,1.478135120849788
-0.2365,1.5017098134035,1.478135120849788
-0.23625000000000002,1.5023871688477017,1.478135120849788
-0.23600000000000004,1.5030645242919034,1.478135120849788
-0.23574999999999996,1.5034032020140042,1.478135120849788
-0.2355,1.5034032020140042,1.478135120849788
-0.23525000000000001,1.503741879736105,1.478135120849788
-0.23500000000000004,1.503741879736105,1.4784677920588032
-0.23474999999999996,1.504080557458206,1.478135120849788
-0.2345,1.5044192351803067,1.478135120849788
-0.23425,1.5047579129024076,1.478135120849788
-0.23400000000000004,1.5050965906245084,1.478135120849788
-0.23374999999999996,1.50577394606871,1.4784677920588032
-0.23349999999999999,1.5064513015129117,1.4784677920588032
-0.23325,1.5067899792350126,1.4784677920588032
-0.23300000000000004,1.5071286569571134,1.4788004632678184
-0.23274999999999996,1.507806012401315,1.4788004632678184
-0.23249999999999998,1.508144690123416,1.4788004632678184
-0.23225,1.507806012401315,1.4788004632678184
-0.23200000000000004,1.507806012401315,1.4791331344768337
-0.23174999999999996,1.5064513015129117,1.4788004632678184
-0.23149999999999998,1.506112623790811,1.4788004632678184
-0.23125,1.5054352683466092,1.4791331344768337
-0.23100000000000004,1.5044192351803067,1.4788004632678184
-0.23074999999999996,1.503741879736105,1.4788004632678184
-0.23049999999999998,1.5034032020140042,1.4788004632678184
-0.23025,1.5034032020140042,1.4788004632678184
-0.23000000000000004,1.5034032020140042,1.4788004632678184
-0.22974999999999995,1.5034032020140042,1.4791331344768337
-0.22949999999999998,1.5034032020140042,1.4791331344768337
-0.22925,1.5027258465698026,1.4791331344768337
-0.22900000000000004,1.5023871688477017,1.4791331344768337
-0.22874999999999995,1.5017098134035,1.4791331344768337
-0.22849999999999998,1.5017098134035,1.4791331344768337
-0.22825,1.5013711356813992,1.4791331344768337
-0.22800000000000004,1.5013711356813992,1.4791331344768337
-0.22774999999999995,1.5013711356813992,1.4791331344768337
-0.22749999999999998,1.5017098134035,1.4791331344768337
-0.22725,1.502048491125601,1.4791331344768337
-0.22700000000000004,1.5030645242919034,1.4791331344768337
-0.22674999999999995,1.504080557458206,1.4791331344768337
-0.22649999999999998,1.5047579129024076,1.4791331344768337
-0.22625,1.50577394606871,1.4791331344768337
-0.22600000000000003,1.5064513015129117,1.479465805685849
-0.22574999999999995,1.5074673346792142,1.479465805685849
-0.22549999999999998,1.5084833678455167,1.4791331344768337
-0.22525,1.5091607232897182,1.479465805685849
-0.22500000000000003,1.5101767564560207,1.479465805685849
-0.22474999999999995,1.5108541119002223,1.4797984768948642
-0.22449999999999998,1.511531467344424,1.4797984768948642
-0.22425,1.5122088227886257,1.4797984768948642
-0.22400000000000003,1.5125475005107265,1.4797984768948642
-0.22374999999999995,1.5132248559549282,1.4797984768948642
-0.22349999999999998,1.513563533677029,1.4801311481038795
-0.22325,1.5139022113991298,1.4801311481038795
-0.22300000000000003,1.5142408891212307,1.4801311481038795
-0.22274999999999995,1.5142408891212307,1.4801311481038795
-0.22249999999999998,1.5139022113991298,1.4801311481038795
-0.22225,1.5139022113991298,1.4801311481038795
-0.22200000000000003,1.513563533677029,1.4804638193128947
-0.22174999999999995,1.513563533677029,1.4804638193128947
-0.22149999999999997,1.513563533677029,1.4804638193128947
-0.22125,1.5132248559549282,1.4804638193128947
-0.22100000000000003,1.5128861782328273,1.4804638193128947
-0.22074999999999995,1.5125475005107265,1.4804638193128947
-0.22049999999999997,1.5122088227886257,1.4804638193128947
-0.22025,1.5118701450665248,1.4804638193128947
-0.22000000000000003,1.5111927896223232,1.4804638193128947
-0.21974999999999995,1.5108541119002223,1.4804638193128947
-0.21949999999999997,1.5101767564560207,1.4804638193128947
-0.21925,1.5098380787339198,1.4801311481038795
-0.21900000000000003,1.5098380787339198,1.4801311481038795
-0.21874999999999994,1.5098380787339198,1.4804638193128947
-0.21849999999999997,1.5098380787339198,1.4801311481038795
-0.21825,1.5101767564560207,1.4801311481038795
-0.21800000000000003,1.5105154341781215,1.4801311481038795
-0.21774999999999994,1.5111927896223232,1.4804638193128947
-0.21749999999999997,1.5118701450665248,1.4804638193128947
-0.21725,1.5118701450665248,1.4801311481038795
-0.21700000000000003,1.5128861782328273,1.4804638193128947
-0.21674999999999994,1.5132248559549282,1.4804638193128947
-0.21649999999999997,1.5139022113991298,1.4804638193128947
-0.21625,1.5145795668433315,1.4801311481038795
-0.21600000000000003,1.515595600009634,1.4801311481038795
-0.21574999999999994,1.5166116331759365,1.4804638193128947
-0.21549999999999997,1.5176276663422388,1.4801311481038795
-0.21525,1.5183050217864404,1.4801311481038795
-0.21500000000000002,1.5189823772306421,1.4804638193128947
-0.21474999999999994,1.5196597326748438,1.4801311481038795
-0.21449999999999997,1.5203370881190454,1.4801311481038795
-0.21425,1.5206757658411463,1.4801311481038795
-0.21400000000000002,1.521014443563247,1.4801311481038795
-0.21374999999999994,1.521353121285348,1.4804638193128947
-0.21349999999999997,1.5216917990074488,1.4804638193128947
-0.21325,1.5223691544516504,1.4804638193128947
-0.21300000000000002,1.5223691544516504,1.48079649052191
-0.21274999999999994,1.5227078321737513,1.4811291617309252
-0.21249999999999997,1.523046509895852,1.4811291617309252
-0.21225,1.523385187617953,1.4814618329399405
-0.21200000000000002,1.523385187617953,1.4814618329399405
-0.21174999999999994,1.5237238653400538,1.4817945041489557
-0.21149999999999997,1.5244012207842554,1.482127175357971
-0.21125,1.5247398985063563,1.4824598465669863
-0.21100000000000002,1.5257559316726585,1.4824598465669863
-0.21075000000000005,1.5264332871168602,1.4827925177760013
-0.21049999999999996,1.5274493202831627,1.4831251889850166
-0.21025,1.5281266757273644,1.4834578601940318
-0.21000000000000002,1.5291427088936669,1.483790531403047
-0.20975000000000005,1.5298200643378685,1.483790531403047
-0.20949999999999996,1.5301587420599694,1.483790531403047
-0.20925,1.530836097504171,1.4841232026120623
-0.20900000000000002,1.5318521306704735,1.4844558738210776
-0.20875000000000005,1.5321908083925744,1.4847885450300928
-0.20849999999999996,1.5321908083925744,1.4847885450300928
-0.20825,1.5318521306704735,1.4847885450300928
-0.20800000000000002,1.5318521306704735,1.485121216239108
-0.20775000000000005,1.5315134529483727,1.485121216239108
-0.20749999999999996,1.5315134529483727,1.485121216239108
-0.20725,1.5318521306704735,1.4854538874481233
-0.20700000000000002,1.5325294861146752,1.4854538874481233
-0.20675000000000004,1.532868163836776,1.4854538874481233
-0.20649999999999996,1.5335455192809775,1.4854538874481233
-0.20625,1.5342228747251792,1.4857865586571386
-0.20600000000000002,1.5349002301693808,1.4857865586571386
-0.20575000000000004,1.5355775856135825,1.4861192298661539
-0.20549999999999996,1.5359162633356833,1.4861192298661539
-0.20525,1.5362549410577842,1.4861192298661539
-0.20500000000000002,1.5369322965019858,1.4861192298661539
-0.20475000000000004,1.5372709742240867,1.4864519010751691
-0.20449999999999996,1.5372709742240867,1.4864519010751691
-0.20425,1.5369322965019858,1.4861192298661539
-0.20400000000000001,1.536593618779885,1.4861192298661539
-0.20375000000000004,1.536593618779885,1.4861192298661539
-0.20349999999999996,1.5359162633356833,1.4861192298661539
-0.20325,1.5352389078914817,1.4857865586571386
-0.203,1.53456155244728,1.4857865586571386
-0.20275000000000004,1.5342228747251792,1.4857865586571386
-0.20249999999999996,1.5338841970030783,1.4854538874481233
-0.20224999999999999,1.5338841970030783,1.4854538874481233
-0.202,1.53456155244728,1.485121216239108
-0.20175000000000004,1.5355775856135825,1.485121216239108
-0.20149999999999996,1.5372709742240867,1.485121216239108
-0.20124999999999998,1.5382870073903891,1.485121216239108
-0.201,1.5396417182787925,1.485121216239108
-0.20075000000000004,1.5409964291671958,1.485121216239108
-0.20049999999999996,1.542351140055599,1.4847885450300928
-0.20024999999999998,1.5430284954998006,1.4847885450300928
-0.2,1.5437058509440023,1.4847885450300928
-0.19975000000000004,1.544044528666103,1.4844558738210776
-0.19949999999999996,1.544044528666103,1.4844558738210776
-0.19924999999999998,1.544044528666103,1.4844558738210776
-0.199,1.5447218841103048,1.4844558738210776
-0.19875000000000004,1.5450605618324056,1.4844558738210776
-0.19849999999999995,1.5450605618324056,1.4844558738210776
-0.19824999999999998,1.544383206388204,1.4841232026120623
-0.198,1.5447218841103048,1.4844558738210776
-0.19775000000000004,1.5447218841103048,1.4844558738210776
-0.19749999999999995,1.5447218841103048,1.4847885450300928
-0.19724999999999998,1.5447218841103048,1.4847885450300928
-0.197,1.5447218841103048,1.4847885450300928
-0.19675000000000004,1.5447218841103048,1.485121216239108
-0.19649999999999995,1.544044528666103,1.4847885450300928
-0.19624999999999998,1.5430284954998006,1.4847885450300928
-0.196,1.5413351068892966,1.4844558738210776
-0.19575000000000004,1.5396417182787925,1.4844558738210776
-0.19549999999999995,1.5376096519461875,1.4841232026120623
-0.19524999999999998,1.5355775856135825,1.4841232026120623
-0.195,1.5332068415588769,1.4841232026120623
-0.19475000000000003,1.5311747752262719,1.483790531403047
-0.19449999999999995,1.528804031171566,1.483790531403047
-0.19424999999999998,1.5271106425610619,1.483790531403047
-0.194,1.525078576228457,1.483790531403047
-0.19375000000000003,1.5237238653400538,1.4834578601940318
-0.19349999999999995,1.5227078321737513,1.4834578601940318
-0.19324999999999998,1.5216917990074488,1.4834578601940318
-0.193,1.521353121285348,1.4834578601940318
-0.19275000000000003,1.521014443563247,1.4834578601940318
-0.19249999999999995,1.521353121285348,1.4834578601940318
-0.19224999999999998,1.5216917990074488,1.483790531403047
-0.192,1.5216917990074488,1.483790531403047
-0.19175000000000003,1.5216917990074488,1.483790531403047
-0.19149999999999995,1.5216917990074488,1.4834578601940318
-0.19124999999999998,1.5220304767295496,1.4834578601940318
-0.191,1.5220304767295496,1.4834578601940318
-0.19075000000000003,1.5220304767295496,1.4834578601940318
-0.19049999999999995,1.5220304767295496,1.4834578601940318
-0.19024999999999997,1.5220304767295496,1.4834578601940318
-0.19,1.5216917990074488,1.483790531403047
-0.18975000000000003,1.5206757658411465,1.4834578601940318
-0.18949999999999995,1.5203370881190454,1.4834578601940318
-0.18924999999999997,1.5199984103969446,1.4831251889850166
-0.189,1.5203370881190454,1.4834578601940318
-0.18875000000000003,1.5203370881190454,1.4834578601940318
-0.18849999999999995,1.5203370881190454,1.4834578601940318
-0.18824999999999997,1.5203370881190454,1.4834578601940318
-0.188,1.5206757658411463,1.4834578601940318
-0.18775000000000003,1.521014443563247,1.483790531403047
-0.18749999999999994,1.521353121285348,1.483790531403047
-0.18724999999999997,1.521353121285348,1.483790531403047
-0.187,1.5216917990074488,1.4834578601940318
-0.18675000000000003,1.5216917990074488,1.483790531403047
-0.18649999999999994,1.5216917990074488,1.483790531403047
-0.18624999999999997,1.521353121285348,1.483790531403047
-0.186,1.521014443563247,1.483790531403047
-0.18575000000000003,1.521014443563247,1.483790531403047
-0.18549999999999994,1.521014443563247,1.483790531403047
-0.18524999999999997,1.521014443563247,1.4841232026120623
-0.185,1.521353121285348,1.4841232026120623
-0.18475000000000003,1.5216917990074488,1.4841232026120623
-0.18449999999999994,1.5220304767295496,1.4844558738210776
-0.18424999999999997,1.5220304767295496,1.4844558738210776
-0.184,1.5220304767295496,1.4847885450300928
-0.18375000000000002,1.5223691544516504,1.4847885450300928
-0.18349999999999994,1.5227078321737513,1.485121216239108
-0.18324999999999997,1.5227078321737513,1.485121216239108
-0.183,1.523046509895852,1.485121216239108
-0.18275000000000002,1.523046509895852,1.485121216239108
-0.18249999999999994,1.523046509895852,1.485121216239108
-0.18224999999999997,1.523046509895852,1.485121216239108
-0.182,1.523046509895852,1.485121216239108
-0.18175000000000002,1.5227078321737513,1.485121216239108
-0.18149999999999994,1.5227078321737513,1.485121216239108
-0.18124999999999997,1.5227078321737513,1.485121216239108
-0.181,1.5237238653400538,1.4847885450300928
-0.18075000000000002,1.5244012207842554,1.4847885450300928
-0.18049999999999994,1.5250785762284573,1.4847885450300928
-0.18024999999999997,1.5260946093947594,1.4844558738210776
-0.18,1.5264332871168602,1.4844558738210776
-0.17975000000000002,1.526771964838961,1.4841232026120623
-0.1795,1.526771964838961,1.4841232026120623
-0.17925000000000002,1.5260946093947594,1.4834578601940318
-0.179,1.5257559316726585,1.483790531403047
-0.17875000000000002,1.5247398985063563,1.4834578601940318
-0.1785,1.523385187617953,1.4831251889850166
-0.17825000000000002,1.5223691544516504,1.4831251889850166
-0.178,1.521014443563247,1.4824598465669863
-0.17775000000000002,1.5196597326748438,1.4824598465669863
-0.1775,1.5183050217864404,1.482127175357971
-0.17725000000000002,1.517288988620138,1.4817945041489557
-0.177,1.5159342777317348,1.4814618329399405
-0.17675000000000002,1.5142408891212307,1.4814618329399405
-0.1765,1.5122088227886257,1.4811291617309252
-0.17625000000000002,1.5098380787339198,1.4804638193128947
-0.176,1.507806012401315,1.4801311481038795
-0.17575000000000002,1.506112623790811,1.4801311481038795
-0.1755,1.5047579129024076,1.4797984768948642
-0.17525000000000002,1.504080557458206,1.479465805685849
-0.175,1.5044192351803067,1.4797984768948642
-0.17475000000000002,1.5050965906245084,1.479465805685849
-0.1745,1.5054352683466092,1.479465805685849
-0.17425000000000002,1.5064513015129117,1.479465805685849
-0.174,1.5071286569571134,1.479465805685849
-0.17375000000000002,1.508144690123416,1.479465805685849
-0.1735,1.5088220455676176,1.479465805685849
-0.17325000000000002,1.509499401011819,1.479465805685849
-0.173,1.5101767564560207,1.479465805685849
-0.17275000000000001,1.5111927896223232,1.479465805685849
-0.1725,1.5128861782328273,1.479465805685849
-0.17225000000000001,1.5142408891212307,1.4797984768948642
-0.172,1.5152569222875332,1.4797984768948642
-0.17175,1.5166116331759365,1.4797984768948642
-0.17149999999999999,1.5176276663422388,1.4801311481038795
-0.17125,1.5183050217864404,1.4801311481038795
-0.17099999999999999,1.5196597326748438,1.4801311481038795
-0.17075,1.5203370881190454,1.4804638193128947
-0.17049999999999998,1.521353121285348,1.48079649052191
-0.17025,1.5220304767295496,1.4811291617309252
-0.16999999999999998,1.5227078321737513,1.4814618329399405
-0.16975,1.523385187617953,1.4814618329399405
-0.16949999999999998,1.5240625430621546,1.4817945041489557
-0.16925,1.5240625430621546,1.4817945041489557
-0.16899999999999998,1.5237238653400538,1.4817945041489557
-0.16875,1.523046509895852,1.482127175357971
-0.16849999999999998,1.5220304767295496,1.4817945041489557
-0.16825,1.5203370881190454,1.4817945041489557
-0.16799999999999998,1.5183050217864404,1.4817945041489557
-0.16775,1.5162729554538357,1.4817945041489557
-0.16749999999999998,1.5139022113991298,1.4817945041489557
-0.16725,1.5118701450665248,1.4817945041489557
-0.16699999999999998,1.5098380787339198,1.4817945041489557
-0.16675,1.508144690123416,1.4817945041489557
-0.16649999999999998,1.5067899792350126,1.4817945041489557
-0.16625,1.50577394606871,1.4817945041489557
-0.16599999999999998,1.5047579129024076,1.4817945041489557
-0.16575,1.504080557458206,1.4817945041489557
-0.16549999999999998,1.5034032020140042,1.4817945041489557
-0.16525,1.5027258465698026,1.4814618329399405
-0.16499999999999998,1.502048491125601,1.4814618329399405
-0.16475,1.5010324579592984,1.4811291617309252
-0.16449999999999998,1.500355102515097,1.48079649052191
-0.16425,1.4990003916266936,1.48079649052191
-0.16399999999999998,1.4976456807382903,1.4804638193128947
-0.16375,1.496290969849887,1.4804638193128947
-0.16349999999999998,1.4949362589614836,1.4801311481038795
-0.16325,1.4935815480730803,1.4801311481038795
-0.16299999999999998,1.4918881594625764,1.4797984768948642
-0.16275,1.4901947708520722,1.479465805685849
-0.16249999999999998,1.4891787376857697,1.479465805685849
-0.16225,1.4881627045194672,1.4791331344768337
-0.16199999999999998,1.4874853490752655,1.4791331344768337
-0.16175,1.4868079936310639,1.4788004632678184
-0.16149999999999998,1.4861306381868622,1.4788004632678184
-0.16125,1.4851146050205597,1.4784677920588032
-0.16099999999999998,1.4840985718542574,1.478135120849788
-0.16075,1.482743860965854,1.4778024496407727
-0.16049999999999998,1.4813891500774508,1.4778024496407727
-0.16025,1.48105047235535,1.4774697784317576
-0.15999999999999998,1.4803731169111483,1.4771371072227424
-0.15975,1.4796957614669466,1.4771371072227424
-0.15949999999999998,1.479018406022745,1.4771371072227424
-0.15925,1.4780023728564424,1.4771371072227424
-0.15899999999999997,1.4780023728564424,1.4768044360137271
-0.15875,1.4783410505785433,1.4768044360137271
-0.15849999999999997,1.4793570837448458,1.4771371072227424
-0.15825,1.48105047235535,1.4771371072227424
-0.15799999999999997,1.482743860965854,1.4771371072227424
-0.15775,1.4847759272984589,1.4771371072227424
-0.15749999999999997,1.4871466713531647,1.4774697784317576
-0.15725,1.4898560931299714,1.4778024496407727
-0.15699999999999997,1.4925655149067778,1.4778024496407727
-0.15675,1.4956136144056853,1.478135120849788
-0.15649999999999997,1.4990003916266936,1.4784677920588032
-0.15625,1.5017098134035,1.4788004632678184
-0.15599999999999997,1.5047579129024076,1.4791331344768337
-0.15575,1.5067899792350126,1.4791331344768337
-0.15549999999999997,1.5088220455676176,1.4791331344768337
-0.15525,1.5108541119002223,1.479465805685849
-0.15499999999999997,1.5128861782328273,1.4797984768948642
-0.15475,1.5145795668433315,1.4797984768948642
-0.15449999999999997,1.5159342777317348,1.4797984768948642
-0.15425,1.5166116331759365,1.4797984768948642
-0.15399999999999997,1.517288988620138,1.4797984768948642
-0.15375,1.5169503108980371,1.4797984768948642
-0.15349999999999997,1.5152569222875332,1.4797984768948642
-0.15325,1.5139022113991298,1.479465805685849
-0.15299999999999997,1.5125475005107265,1.479465805685849
-0.15275,1.511531467344424,1.479465805685849
-0.15249999999999997,1.5111927896223232,1.479465805685849
-0.15225,1.5108541119002223,1.479465805685849
-0.15199999999999997,1.509499401011819,1.479465805685849
-0.15175,1.507806012401315,1.4791331344768337
-0.15149999999999997,1.5050965906245084,1.4788004632678184
-0.15125,1.5023871688477017,1.4788004632678184
-0.15099999999999997,1.4996777470708953,1.4784677920588032
-0.15075,1.4976456807382903,1.4784677920588032
-0.15049999999999997,1.4956136144056853,1.478135120849788
-0.15025,1.4939202257951811,1.478135120849788
-0.14999999999999997,1.4925655149067778,1.478135120849788
-0.14975,1.4915494817404755,1.478135120849788
-0.14949999999999997,1.4908721262962739,1.478135120849788
-0.14925,1.4901947708520722,1.478135120849788
-0.14899999999999997,1.4898560931299714,1.4784677920588032
-0.14875,1.4898560931299714,1.4784677920588032
-0.14850000000000002,1.4901947708520722,1.4784677920588032
-0.14825,1.4901947708520722,1.4788004632678184
-0.14800000000000002,1.4898560931299714,1.4784677920588032
-0.14775,1.4898560931299714,1.4788004632678184
-0.14750000000000002,1.4898560931299714,1.4784677920588032
-0.14725,1.490533448574173,1.4788004632678184
-0.14700000000000002,1.4908721262962739,1.4784677920588032
-0.14675,1.4915494817404755,1.4784677920588032
-0.14650000000000002,1.4922268371846772,1.478135120849788
-0.14625,1.4932428703509795,1.478135120849788
-0.14600000000000002,1.4945975812393828,1.4778024496407727
-0.14575,1.4959522921277861,1.478135120849788
-0.14550000000000002,1.4973070030161895,1.4778024496407727
-0.14525,1.4986617139045928,1.4778024496407727
-0.14500000000000002,1.4996777470708953,1.4778024496407727
-0.14475,1.5006937802371976,1.4778024496407727
-0.14450000000000002,1.5010324579592984,1.4778024496407727
-0.14425,1.5017098134035,1.4778024496407727
-0.14400000000000002,1.5027258465698026,1.4778024496407727
-0.14375,1.5030645242919034,1.4774697784317576
-0.14350000000000002,1.5034032020140042,1.4774697784317576
-0.14325,1.5034032020140042,1.4771371072227424
-0.14300000000000002,1.5034032020140042,1.4771371072227424
-0.14275,1.5034032020140042,1.4771371072227424
-0.14250000000000002,1.5034032020140042,1.4768044360137271
-0.14225,1.5027258465698026,1.4771371072227424
-0.14200000000000002,1.502048491125601,1.4771371072227424
-0.14175,1.5013711356813992,1.4771371072227424
-0.14150000000000001,1.500355102515097,1.4768044360137271
-0.14125,1.4993390693487945,1.4768044360137271
-0.14100000000000001,1.498323036182492,1.4768044360137271
-0.14075,1.4973070030161895,1.4768044360137271
-0.1405,1.4952749366835845,1.4768044360137271
-0.14024999999999999,1.4932428703509795,1.4768044360137271
-0.14,1.4908721262962739,1.4768044360137271
-0.13974999999999999,1.488501382241568,1.4764717648047119
-0.1395,1.486469315908963,1.4764717648047119
-0.13924999999999998,1.484437249576358,1.4764717648047119
-0.139,1.483082538687955,1.4761390935956966
-0.13874999999999998,1.4824051832437533,1.4761390935956966
-0.1385,1.4813891500774508,1.4761390935956966
-0.13824999999999998,1.4817278277995516,1.4758064223866814
-0.138,1.4817278277995516,1.4761390935956966
-0.13774999999999998,1.4820665055216524,1.4761390935956966
-0.1375,1.4834212164100558,1.4758064223866814
-0.13724999999999998,1.4847759272984589,1.4761390935956966
-0.137,1.4861306381868622,1.4761390935956966
-0.13674999999999998,1.4874853490752655,1.4764717648047119
-0.1365,1.488501382241568,1.4764717648047119
-0.13624999999999998,1.4895174154078705,1.4764717648047119
-0.136,1.4898560931299714,1.4764717648047119
-0.13574999999999998,1.4898560931299714,1.4764717648047119
-0.1355,1.4898560931299714,1.4764717648047119
-0.13524999999999998,1.4895174154078705,1.4764717648047119
-0.135,1.4888400599636689,1.4761390935956966
-0.13474999999999998,1.4878240267973664,1.4758064223866814
-0.1345,1.4871466713531647,1.475473751177666
-0.13424999999999998,1.486469315908963,1.4751410799686508
-0.134,1.4854532827426605,1.4744757375506203
-0.13374999999999998,1.484437249576358,1.4744757375506203
-0.1335,1.4834212164100558,1.4738103951325898
-0.13324999999999998,1.482743860965854,1.4738103951325898
-0.133,1.4820665055216524,1.4734777239235746
-0.13274999999999998,1.4817278277995516,1.4731450527145593
-0.1325,1.4817278277995516,1.4731450527145593
-0.13224999999999998,1.4817278277995516,1.472812381505544
-0.132,1.4817278277995516,1.472812381505544
-0.13174999999999998,1.4813891500774508,1.472812381505544
-0.1315,1.480711794633249,1.4724797102965288
-0.13124999999999998,1.4800344391890474,1.4724797102965288
-0.131,1.479018406022745,1.4721470390875138
-0.13074999999999998,1.4783410505785433,1.4718143678784985
-0.1305,1.4776636951343416,1.4718143678784985
-0.13024999999999998,1.476647661968039,1.4718143678784985
-0.13,1.4759703065238374,1.4718143678784985
-0.12974999999999998,1.475292951079636,1.4718143678784985
-0.1295,1.4742769179133335,1.4718143678784985
-0.12924999999999998,1.4735995624691318,1.4718143678784985
-0.129,1.473260884747031,1.4718143678784985
-0.12874999999999998,1.473260884747031,1.4714816966694833
-0.1285,1.4735995624691318,1.4714816966694833
-0.12824999999999998,1.4742769179133335,1.4714816966694833
-0.128,1.4746155956354343,1.4714816966694833
-0.12774999999999997,1.4749542733575352,1.4714816966694833
-0.1275,1.475292951079636,1.4714816966694833
-0.12724999999999997,1.4749542733575352,1.471149025460468
-0.127,1.4749542733575352,1.471149025460468
-0.12674999999999997,1.4746155956354343,1.4708163542514527
-0.1265,1.4749542733575352,1.471149025460468
-0.12624999999999997,1.4756316288017368,1.471149025460468
-0.126,1.4763089842459383,1.4708163542514527
-0.12574999999999997,1.4773250174122408,1.471149025460468
-0.1255,1.4780023728564424,1.471149025460468
-0.12524999999999997,1.479018406022745,1.471149025460468
-0.125,1.4796957614669466,1.471149025460468
-0.12474999999999997,1.480711794633249,1.471149025460468
-0.1245,1.4820665055216524,1.4714816966694833
-0.12424999999999997,1.482743860965854,1.4714816966694833
-0.124,1.4824051832437533,1.471149025460468
-0.12374999999999997,1.4824051832437533,1.471149025460468
-0.1235,1.4820665055216524,1.471149025460468
-0.12324999999999997,1.4817278277995516,1.471149025460468
-0.123,1.4820665055216524,1.4708163542514527
-0.12274999999999997,1.4820665055216524,1.4708163542514527
-0.1225,1.4824051832437533,1.4704836830424375
-0.12224999999999997,1.483082538687955,1.4704836830424375
-0.122,1.4834212164100558,1.4701510118334222
-0.12174999999999997,1.4837598941321566,1.4701510118334222
-0.1215,1.4840985718542574,1.4701510118334222
-0.12124999999999997,1.4840985718542574,1.469818340624407
-0.121,1.4837598941321566,1.469818340624407
-0.12074999999999997,1.482743860965854,1.4694856694153917
-0.1205,1.4820665055216524,1.4694856694153917
-0.12024999999999997,1.4813891500774508,1.4691529982063765
-0.12,1.48105047235535,1.4691529982063765
-0.11974999999999997,1.48105047235535,1.4691529982063765
-0.1195,1.48105047235535,1.4688203269973612
-0.11924999999999997,1.4813891500774508,1.4688203269973612
-0.119,1.4813891500774508,1.4688203269973612
-0.11874999999999997,1.480711794633249,1.468487655788346
-0.1185,1.4800344391890474,1.468487655788346
-0.11824999999999997,1.479018406022745,1.4681549845793307
-0.118,1.4773250174122408,1.4678223133703154
-0.11774999999999997,1.4749542733575352,1.4678223133703154
-0.1175,1.4729222070249302,1.4674896421613002
-0.11725000000000002,1.4708901406923252,1.467156970952285
-0.11699999999999999,1.4695354298039218,1.4668242997432699
-0.11675000000000002,1.4681807189155185,1.4668242997432699
-0.11649999999999999,1.4671646857492162,1.4664916285342546
-0.11625000000000002,1.4664873303050145,1.4664916285342546
-0.11599999999999999,1.4658099748608129,1.4664916285342546
-0.11575000000000002,1.4651326194166112,1.4661589573252394
-0.11549999999999999,1.4644552639724095,1.4664916285342546
-0.11525000000000002,1.4644552639724095,1.4664916285342546
-0.11499999999999999,1.4637779085282079,1.4664916285342546
-0.11475000000000002,1.463439230806107,1.4664916285342546
-0.11449999999999999,1.4631005530840062,1.4664916285342546
-0.11425000000000002,1.4627618753619054,1.4668242997432699
-0.11399999999999999,1.4624231976398046,1.4668242997432699
-0.11375000000000002,1.4617458421956029,1.4668242997432699
-0.11349999999999999,1.4607298090293004,1.4664916285342546
-0.11325000000000002,1.4600524535850987,1.4664916285342546
-0.11299999999999999,1.4593750981408973,1.4664916285342546
-0.11275000000000002,1.4590364204187964,1.4664916285342546
-0.11249999999999999,1.4583590649745948,1.4664916285342546
-0.11225000000000002,1.457681709530393,1.4661589573252394
-0.11199999999999999,1.4570043540861914,1.4664916285342546
-0.11175000000000002,1.4563269986419898,1.4664916285342546
-0.11149999999999999,1.4556496431977881,1.4661589573252394
-0.11125000000000002,1.4553109654756873,1.4661589573252394
-0.11099999999999999,1.4549722877535864,1.4661589573252394
-0.11075000000000002,1.4546336100314856,1.4658262861162241
-0.11049999999999999,1.453956254587284,1.4661589573252394
-0.11025000000000001,1.4536175768651831,1.4658262861162241
