#Digilent WaveForms Oscilloscope Acquisition
#Device Name: Discovery2
#Serial Number: SN:210321A35B9C
#Date Time: 2022-07-25 14:28:03.565
#Sample rate: 4000Hz
#Samples: 8000
#Trigger: Source: Channel 1 Type: Edge Condition: Rising Level: 1.47 V Hyst.: Auto HoldOff: 100 ns
#Channel 1: Range: 20 mV/div Offset: -1.48 V Attenuation: 1 X Sample Mode: Average
#Channel 2: Range: 20 mV/div Offset: -1.5 V Attenuation: 1 X Sample Mode: Average

Time (s),Channel 1 (V),Channel 2 (V)
0,1.4796957614669466,1.472263489732632
0.00024999999999997247,1.4796957614669466,1.472263489732632
0.0004999999999999449,1.4796957614669466,1.472263489732632
0.0007500000000000284,1.4793570837448458,1.472263489732632
0.0010000000000000009,1.4793570837448458,1.4719308185236168
0.0012499999999999734,1.4793570837448458,1.4719308185236168
0.0014999999999999458,1.4793570837448458,1.4719308185236168
0.0017500000000000293,1.4793570837448458,1.4719308185236168
0.0020000000000000018,1.479018406022745,1.4715981473146016
0.0022499999999999742,1.479018406022745,1.4715981473146016
0.0024999999999999467,1.479018406022745,1.4715981473146016
0.00275000000000003,1.479018406022745,1.4715981473146016
0.0030000000000000027,1.479018406022745,1.4715981473146016
0.003249999999999975,1.479018406022745,1.4715981473146016
0.0034999999999999476,1.479018406022745,1.4715981473146016
0.003750000000000031,1.479018406022745,1.4715981473146016
0.0040000000000000036,1.479018406022745,1.4715981473146016
0.004249999999999976,1.479018406022745,1.4715981473146016
0.0044999999999999485,1.479018406022745,1.4715981473146016
0.004750000000000032,1.479018406022745,1.4719308185236168
0.0050000000000000044,1.479018406022745,1.4719308185236168
0.005249999999999977,1.4793570837448458,1.4719308185236168
0.005499999999999949,1.4793570837448458,1.4719308185236168
0.005750000000000033,1.4796957614669466,1.472263489732632
0.006000000000000005,1.4796957614669466,1.472263489732632
0.006249999999999978,1.4796957614669466,1.472263489732632
0.00649999999999995,1.4796957614669466,1.4725961609416474
0.006750000000000034,1.4796957614669466,1.4725961609416474
0.007000000000000006,1.4793570837448458,1.472263489732632
0.007249999999999979,1.4796957614669466,1.4725961609416474
0.007499999999999951,1.4796957614669466,1.4725961609416474
0.007750000000000035,1.4796957614669466,1.4725961609416474
0.008000000000000007,1.4800344391890474,1.4729288321506626
0.00824999999999998,1.4800344391890474,1.4725961609416474
0.008499999999999952,1.4800344391890474,1.4729288321506626
0.008750000000000036,1.4803731169111483,1.4729288321506626
0.009000000000000008,1.4803731169111483,1.4729288321506626
0.00924999999999998,1.4803731169111483,1.4729288321506626
0.009499999999999953,1.480711794633249,1.4729288321506626
0.009750000000000036,1.480711794633249,1.4732615033596779
0.010000000000000009,1.480711794633249,1.4732615033596779
0.010249999999999981,1.48105047235535,1.4735941745686931
0.010499999999999954,1.4813891500774508,1.4732615033596779
0.010750000000000037,1.4813891500774508,1.4732615033596779
0.01100000000000001,1.4813891500774508,1.4735941745686931
0.011249999999999982,1.4813891500774508,1.4735941745686931
0.011499999999999955,1.4813891500774508,1.4735941745686931
0.011750000000000038,1.4813891500774508,1.4735941745686931
0.01200000000000001,1.4813891500774508,1.4735941745686931
0.012249999999999983,1.4813891500774508,1.4739268457777084
0.012499999999999956,1.4813891500774508,1.4739268457777084
0.012750000000000039,1.4817278277995516,1.4739268457777084
0.013000000000000012,1.4817278277995516,1.4742595169867236
0.013249999999999984,1.4817278277995516,1.4739268457777084
0.013499999999999956,1.4817278277995516,1.4739268457777084
0.01375000000000004,1.4817278277995516,1.4739268457777084
0.014000000000000012,1.4817278277995516,1.4739268457777084
0.014249999999999985,1.4817278277995516,1.4739268457777084
0.014499999999999957,1.4817278277995516,1.4739268457777084
0.01475000000000004,1.4817278277995516,1.4739268457777084
0.015000000000000013,1.4813891500774508,1.4739268457777084
0.015249999999999986,1.4813891500774508,1.4739268457777084
0.015499999999999958,1.4813891500774508,1.4735941745686931
0.015750000000000042,1.4813891500774508,1.4739268457777084
0.016000000000000014,1.48105047235535,1.4739268457777084
0.016249999999999987,1.48105047235535,1.4735941745686931
0.01649999999999996,1.48105047235535,1.4735941745686931
0.016750000000000043,1.48105047235535,1.4735941745686931
0.017000000000000015,1.480711794633249,1.4732615033596779
0.017249999999999988,1.480711794633249,1.4735941745686931
0.01749999999999996,1.480711794633249,1.4735941745686931
0.017750000000000044,1.480711794633249,1.4732615033596779
0.018000000000000016,1.4803731169111483,1.4732615033596779
0.01824999999999999,1.4803731169111483,1.4729288321506626
0.01849999999999996,1.4800344391890474,1.4729288321506626
0.018750000000000044,1.4800344391890474,1.4729288321506626
0.019000000000000017,1.4800344391890474,1.4729288321506626
0.01924999999999999,1.4800344391890474,1.4729288321506626
0.019499999999999962,1.4800344391890474,1.4729288321506626
0.019750000000000045,1.4796957614669466,1.4725961609416474
0.020000000000000018,1.4796957614669466,1.4725961609416474
0.02024999999999999,1.4796957614669466,1.4725961609416474
0.020499999999999963,1.4793570837448458,1.472263489732632
0.020750000000000046,1.4793570837448458,1.4725961609416474
0.02100000000000002,1.479018406022745,1.472263489732632
0.02124999999999999,1.479018406022745,1.472263489732632
0.021499999999999964,1.478679728300644,1.472263489732632
0.021750000000000047,1.4783410505785433,1.472263489732632
0.02200000000000002,1.4783410505785433,1.4719308185236168
0.022249999999999992,1.4783410505785433,1.472263489732632
0.022499999999999964,1.4783410505785433,1.472263489732632
0.022750000000000048,1.4783410505785433,1.4719308185236168
0.02300000000000002,1.4783410505785433,1.4719308185236168
0.023249999999999993,1.4783410505785433,1.4719308185236168
0.023499999999999965,1.4783410505785433,1.472263489732632
0.02375000000000005,1.4783410505785433,1.4719308185236168
0.02400000000000002,1.4783410505785433,1.472263489732632
0.024249999999999994,1.4783410505785433,1.4719308185236168
0.024499999999999966,1.4783410505785433,1.472263489732632
0.02475000000000005,1.4783410505785433,1.472263489732632
0.025000000000000022,1.4783410505785433,1.472263489732632
0.025249999999999995,1.4783410505785433,1.472263489732632
0.025499999999999967,1.478679728300644,1.472263489732632
0.02575000000000005,1.478679728300644,1.472263489732632
0.026000000000000023,1.478679728300644,1.4725961609416474
0.026249999999999996,1.478679728300644,1.472263489732632
0.026499999999999968,1.479018406022745,1.4725961609416474
0.02675000000000005,1.479018406022745,1.4725961609416474
0.027000000000000024,1.4793570837448458,1.4729288321506626
0.027249999999999996,1.4796957614669466,1.4729288321506626
0.02749999999999997,1.4793570837448458,1.4729288321506626
0.027750000000000052,1.4796957614669466,1.4732615033596779
0.028000000000000025,1.4796957614669466,1.4732615033596779
0.028249999999999997,1.4796957614669466,1.4735941745686931
0.02849999999999997,1.4800344391890474,1.4735941745686931
0.028750000000000053,1.4800344391890474,1.4735941745686931
0.029000000000000026,1.4803731169111483,1.4739268457777084
0.029249999999999998,1.4803731169111483,1.4739268457777084
0.02949999999999997,1.4803731169111483,1.4739268457777084
0.029750000000000054,1.480711794633249,1.4739268457777084
0.030000000000000027,1.480711794633249,1.4739268457777084
0.03025,1.480711794633249,1.4742595169867236
0.03049999999999997,1.480711794633249,1.4739268457777084
0.030750000000000055,1.48105047235535,1.4742595169867236
0.031000000000000028,1.48105047235535,1.4742595169867236
0.03125,1.48105047235535,1.4742595169867236
0.03149999999999997,1.48105047235535,1.4742595169867236
0.031749999999999945,1.4813891500774508,1.4742595169867236
0.03200000000000003,1.4813891500774508,1.474592188195739
0.03225,1.4813891500774508,1.474592188195739
0.03249999999999997,1.4813891500774508,1.474592188195739
0.032749999999999946,1.4813891500774508,1.4742595169867236
0.03300000000000003,1.4813891500774508,1.474592188195739
0.03325,1.4813891500774508,1.474592188195739
0.033499999999999974,1.4813891500774508,1.4742595169867236
0.03374999999999995,1.4813891500774508,1.474592188195739
0.03400000000000003,1.4813891500774508,1.474592188195739
0.03425,1.4813891500774508,1.474592188195739
0.034499999999999975,1.4813891500774508,1.474592188195739
0.03474999999999995,1.4813891500774508,1.474592188195739
0.03500000000000003,1.4813891500774508,1.474592188195739
0.035250000000000004,1.4813891500774508,1.474592188195739
0.035499999999999976,1.4813891500774508,1.4742595169867236
0.03574999999999995,1.4813891500774508,1.474592188195739
0.03600000000000003,1.4813891500774508,1.4742595169867236
0.036250000000000004,1.48105047235535,1.4742595169867236
0.03649999999999998,1.48105047235535,1.4742595169867236
0.03674999999999995,1.480711794633249,1.4742595169867236
0.03700000000000003,1.480711794633249,1.4739268457777084
0.037250000000000005,1.480711794633249,1.4739268457777084
0.03749999999999998,1.4803731169111483,1.4739268457777084
0.03774999999999995,1.4803731169111483,1.4739268457777084
0.038000000000000034,1.4803731169111483,1.4735941745686931
0.038250000000000006,1.4800344391890474,1.4735941745686931
0.03849999999999998,1.4800344391890474,1.4732615033596779
0.03874999999999995,1.4796957614669466,1.4732615033596779
0.039000000000000035,1.4796957614669466,1.4732615033596779
0.03925000000000001,1.4796957614669466,1.4732615033596779
0.03949999999999998,1.4796957614669466,1.4732615033596779
0.03974999999999995,1.4793570837448458,1.4729288321506626
0.040000000000000036,1.4793570837448458,1.4729288321506626
0.04025000000000001,1.479018406022745,1.4725961609416474
0.04049999999999998,1.4793570837448458,1.4725961609416474
0.04074999999999995,1.478679728300644,1.4729288321506626
0.041000000000000036,1.478679728300644,1.4725961609416474
0.04125000000000001,1.4783410505785433,1.4725961609416474
0.04149999999999998,1.4783410505785433,1.472263489732632
0.041749999999999954,1.4780023728564424,1.472263489732632
0.04200000000000004,1.4783410505785433,1.472263489732632
0.04225000000000001,1.4783410505785433,1.472263489732632
0.04249999999999998,1.4780023728564424,1.472263489732632
0.042749999999999955,1.4780023728564424,1.472263489732632
0.04300000000000004,1.4780023728564424,1.472263489732632
0.04325000000000001,1.4780023728564424,1.4719308185236168
0.04349999999999998,1.4780023728564424,1.472263489732632
0.043749999999999956,1.4780023728564424,1.472263489732632
0.04400000000000004,1.4783410505785433,1.472263489732632
0.04425000000000001,1.4783410505785433,1.472263489732632
0.044499999999999984,1.4783410505785433,1.472263489732632
0.044749999999999956,1.4783410505785433,1.472263489732632
0.04500000000000004,1.478679728300644,1.472263489732632
0.04525000000000001,1.478679728300644,1.472263489732632
0.045499999999999985,1.478679728300644,1.472263489732632
0.04574999999999996,1.478679728300644,1.472263489732632
0.04600000000000004,1.479018406022745,1.472263489732632
0.04625000000000001,1.4793570837448458,1.4725961609416474
0.046499999999999986,1.4793570837448458,1.4725961609416474
0.04674999999999996,1.4796957614669466,1.4729288321506626
0.04700000000000004,1.4796957614669466,1.4729288321506626
0.047250000000000014,1.4800344391890474,1.4729288321506626
0.04749999999999999,1.4800344391890474,1.4729288321506626
0.04774999999999996,1.4803731169111483,1.4729288321506626
0.04800000000000004,1.4803731169111483,1.4729288321506626
0.048250000000000015,1.480711794633249,1.4732615033596779
0.04849999999999999,1.480711794633249,1.4732615033596779
0.04874999999999996,1.48105047235535,1.4732615033596779
0.049000000000000044,1.48105047235535,1.4735941745686931
0.049250000000000016,1.48105047235535,1.4732615033596779
0.04949999999999999,1.4817278277995516,1.4732615033596779
0.04974999999999996,1.4817278277995516,1.4735941745686931
0.050000000000000044,1.4820665055216524,1.4735941745686931
0.05025000000000002,1.4820665055216524,1.4735941745686931
0.05049999999999999,1.4824051832437533,1.4739268457777084
0.05074999999999996,1.4824051832437533,1.4739268457777084
0.051000000000000045,1.4824051832437533,1.4739268457777084
0.05125000000000002,1.482743860965854,1.4739268457777084
0.05149999999999999,1.482743860965854,1.4739268457777084
0.05174999999999996,1.483082538687955,1.4742595169867236
0.052000000000000046,1.483082538687955,1.4739268457777084
0.05225000000000002,1.4834212164100558,1.4739268457777084
0.05249999999999999,1.4834212164100558,1.4742595169867236
0.052749999999999964,1.4837598941321566,1.4742595169867236
0.05300000000000005,1.4837598941321566,1.4742595169867236
0.05325000000000002,1.4837598941321566,1.4742595169867236
0.05349999999999999,1.4840985718542572,1.4742595169867236
0.053749999999999964,1.4837598941321566,1.4742595169867236
0.05400000000000005,1.4837598941321566,1.4742595169867236
0.05425000000000002,1.4837598941321566,1.4742595169867236
0.05449999999999999,1.4837598941321566,1.4742595169867236
0.054749999999999965,1.4837598941321566,1.4742595169867236
0.05500000000000005,1.4837598941321566,1.4742595169867236
0.05525000000000002,1.4837598941321566,1.4742595169867236
0.055499999999999994,1.4834212164100558,1.4742595169867236
0.055749999999999966,1.4834212164100558,1.4742595169867236
0.05600000000000005,1.483082538687955,1.4739268457777084
0.05625000000000002,1.483082538687955,1.4739268457777084
0.056499999999999995,1.483082538687955,1.4739268457777084
0.05674999999999997,1.483082538687955,1.4739268457777084
0.05700000000000005,1.483082538687955,1.4739268457777084
0.05725000000000002,1.482743860965854,1.4735941745686931
0.057499999999999996,1.482743860965854,1.4735941745686931
0.05774999999999997,1.482743860965854,1.4735941745686931
0.05800000000000005,1.4824051832437533,1.4735941745686931
0.058250000000000024,1.4820665055216524,1.4735941745686931
0.058499999999999996,1.4820665055216524,1.4735941745686931
0.05874999999999997,1.4820665055216524,1.4732615033596779
0.05900000000000005,1.4820665055216524,1.4732615033596779
0.059250000000000025,1.4820665055216524,1.4732615033596779
0.0595,1.4817278277995516,1.4732615033596779
0.05974999999999997,1.4817278277995516,1.4732615033596779
0.06000000000000005,1.4817278277995516,1.4729288321506626
0.060250000000000026,1.4817278277995516,1.4729288321506626
0.0605,1.4817278277995516,1.4729288321506626
0.06074999999999997,1.4813891500774508,1.4729288321506626
0.061000000000000054,1.4817278277995516,1.4725961609416474
0.06125000000000003,1.4817278277995516,1.4725961609416474
0.0615,1.4813891500774508,1.4729288321506626
0.06174999999999997,1.4817278277995516,1.4725961609416474
0.062000000000000055,1.4817278277995516,1.4725961609416474
0.06225000000000003,1.4817278277995516,1.472263489732632
0.0625,1.4817278277995516,1.472263489732632
0.06274999999999997,1.4813891500774508,1.472263489732632
0.06299999999999994,1.4813891500774508,1.472263489732632
0.06325000000000003,1.48105047235535,1.472263489732632
0.0635,1.48105047235535,1.472263489732632
0.06374999999999997,1.48105047235535,1.472263489732632
0.06399999999999995,1.48105047235535,1.472263489732632
0.06425000000000003,1.480711794633249,1.472263489732632
0.0645,1.4800344391890474,1.472263489732632
0.06474999999999997,1.4796957614669466,1.472263489732632
0.06499999999999995,1.4793570837448458,1.472263489732632
0.06525000000000003,1.4793570837448458,1.472263489732632
0.0655,1.479018406022745,1.472263489732632
0.06574999999999998,1.479018406022745,1.472263489732632
0.06599999999999995,1.4793570837448458,1.4725961609416474
0.06625000000000003,1.4793570837448458,1.4725961609416474
0.0665,1.4796957614669466,1.4725961609416474
0.06674999999999998,1.4800344391890474,1.4729288321506626
0.06699999999999995,1.4803731169111483,1.4729288321506626
0.06725000000000003,1.4803731169111483,1.4729288321506626
0.0675,1.4803731169111483,1.4732615033596779
0.06774999999999998,1.480711794633249,1.4732615033596779
0.06799999999999995,1.4803731169111483,1.4735941745686931
0.06825000000000003,1.4803731169111483,1.4735941745686931
0.0685,1.480711794633249,1.4739268457777084
0.06874999999999998,1.480711794633249,1.4739268457777084
0.06899999999999995,1.480711794633249,1.4735941745686931
0.06925000000000003,1.480711794633249,1.4735941745686931
0.0695,1.48105047235535,1.4739268457777084
0.06974999999999998,1.48105047235535,1.4739268457777084
0.06999999999999995,1.4813891500774508,1.4739268457777084
0.07025000000000003,1.4813891500774508,1.4739268457777084
0.07050000000000001,1.4817278277995516,1.4739268457777084
0.07074999999999998,1.4817278277995516,1.4739268457777084
0.07099999999999995,1.4817278277995516,1.4739268457777084
0.07125000000000004,1.4817278277995516,1.4739268457777084
0.07150000000000001,1.4820665055216524,1.4739268457777084
0.07174999999999998,1.4820665055216524,1.4742595169867236
0.07199999999999995,1.4820665055216524,1.4739268457777084
0.07225000000000004,1.4824051832437533,1.4742595169867236
0.07250000000000001,1.4824051832437533,1.4742595169867236
0.07274999999999998,1.4824051832437533,1.4742595169867236
0.07299999999999995,1.4824051832437533,1.4742595169867236
0.07325000000000004,1.482743860965854,1.4742595169867236
0.07350000000000001,1.482743860965854,1.4739268457777084
0.07374999999999998,1.482743860965854,1.4742595169867236
0.07399999999999995,1.482743860965854,1.4742595169867236
0.07425000000000004,1.4824051832437533,1.4742595169867236
0.07450000000000001,1.482743860965854,1.4742595169867236
0.07474999999999998,1.482743860965854,1.474592188195739
0.07499999999999996,1.482743860965854,1.4742595169867236
0.07525000000000004,1.482743860965854,1.4742595169867236
0.07550000000000001,1.482743860965854,1.4742595169867236
0.07574999999999998,1.482743860965854,1.4742595169867236
0.07599999999999996,1.482743860965854,1.4742595169867236
0.07625000000000004,1.482743860965854,1.4739268457777084
0.07650000000000001,1.482743860965854,1.4739268457777084
0.07674999999999998,1.482743860965854,1.4739268457777084
0.07699999999999996,1.482743860965854,1.4739268457777084
0.07725000000000004,1.4824051832437533,1.4735941745686931
0.07750000000000001,1.4824051832437533,1.4735941745686931
0.07774999999999999,1.4824051832437533,1.4735941745686931
0.07799999999999996,1.4824051832437533,1.4732615033596779
0.07825000000000004,1.4824051832437533,1.4735941745686931
0.07850000000000001,1.4820665055216524,1.4732615033596779
0.07874999999999999,1.4820665055216524,1.4732615033596779
0.07899999999999996,1.4817278277995516,1.4732615033596779
0.07925000000000004,1.4813891500774508,1.4729288321506626
0.07950000000000002,1.4813891500774508,1.4729288321506626
0.07974999999999999,1.48105047235535,1.4729288321506626
0.07999999999999996,1.48105047235535,1.4729288321506626
0.08025000000000004,1.480711794633249,1.4729288321506626
0.08050000000000002,1.4803731169111483,1.4725961609416474
0.08074999999999999,1.4803731169111483,1.4725961609416474
0.08099999999999996,1.4800344391890474,1.4725961609416474
0.08125000000000004,1.4800344391890474,1.4725961609416474
0.08150000000000002,1.4796957614669466,1.4725961609416474
0.08174999999999999,1.4796957614669466,1.472263489732632
0.08199999999999996,1.4793570837448458,1.472263489732632
0.08225000000000005,1.479018406022745,1.472263489732632
0.08250000000000002,1.479018406022745,1.472263489732632
0.08274999999999999,1.478679728300644,1.472263489732632
0.08299999999999996,1.478679728300644,1.4719308185236168
0.08325000000000005,1.478679728300644,1.472263489732632
0.08350000000000002,1.478679728300644,1.472263489732632
0.08374999999999999,1.4783410505785433,1.4719308185236168
0.08399999999999996,1.478679728300644,1.472263489732632
0.08425000000000005,1.4783410505785433,1.4719308185236168
0.08450000000000002,1.4783410505785433,1.472263489732632
0.08474999999999999,1.4783410505785433,1.472263489732632
0.08499999999999996,1.4783410505785433,1.472263489732632
0.08525000000000005,1.478679728300644,1.472263489732632
0.08550000000000002,1.478679728300644,1.4725961609416474
0.08574999999999999,1.478679728300644,1.4725961609416474
0.08599999999999997,1.479018406022745,1.4725961609416474
0.08625000000000005,1.479018406022745,1.4725961609416474
0.08650000000000002,1.4793570837448458,1.4729288321506626
0.08675,1.4793570837448458,1.4729288321506626
0.08699999999999997,1.4793570837448458,1.4732615033596779
0.08725000000000005,1.4793570837448458,1.4732615033596779
0.08750000000000002,1.4793570837448458,1.4732615033596779
0.08775,1.4796957614669466,1.4735941745686931
0.08799999999999997,1.4796957614669466,1.4735941745686931
0.08825000000000005,1.4800344391890474,1.4735941745686931
0.08850000000000002,1.4800344391890474,1.4735941745686931
0.08875,1.4800344391890474,1.4739268457777084
0.08899999999999997,1.4800344391890474,1.4739268457777084
0.08925000000000005,1.4800344391890474,1.4742595169867236
0.08950000000000002,1.4800344391890474,1.4739268457777084
0.08975,1.4800344391890474,1.4742595169867236
0.08999999999999997,1.4803731169111483,1.4742595169867236
0.09025000000000005,1.4803731169111483,1.474592188195739
0.09050000000000002,1.480711794633249,1.474592188195739
0.09075,1.48105047235535,1.4749248594047542
0.09099999999999997,1.48105047235535,1.4749248594047542
0.09125000000000005,1.48105047235535,1.4749248594047542
0.09150000000000003,1.4813891500774508,1.4749248594047542
0.09175,1.4813891500774508,1.4749248594047542
0.09199999999999997,1.4813891500774508,1.4749248594047542
0.09225000000000005,1.4813891500774508,1.4749248594047542
0.09250000000000003,1.4817278277995516,1.4752575306137694
0.09275,1.4817278277995516,1.4752575306137694
0.09299999999999997,1.4817278277995516,1.4752575306137694
0.09325000000000006,1.4817278277995516,1.4749248594047542
0.09350000000000003,1.4813891500774508,1.4749248594047542
0.09375,1.4817278277995516,1.4749248594047542
0.09399999999999997,1.4817278277995516,1.4749248594047542
0.09424999999999994,1.4817278277995516,1.4752575306137694
0.09450000000000003,1.4817278277995516,1.4749248594047542
0.09475,1.4817278277995516,1.4749248594047542
0.09499999999999997,1.4817278277995516,1.4749248594047542
0.09524999999999995,1.4817278277995516,1.4749248594047542
0.09550000000000003,1.4813891500774508,1.474592188195739
0.09575,1.4813891500774508,1.474592188195739
0.09599999999999997,1.4813891500774508,1.474592188195739
0.09624999999999995,1.4813891500774508,1.4742595169867236
0.09650000000000003,1.4813891500774508,1.474592188195739
0.09675,1.4813891500774508,1.4742595169867236
0.09699999999999998,1.4813891500774508,1.4742595169867236
0.09724999999999995,1.48105047235535,1.4742595169867236
0.09750000000000003,1.48105047235535,1.4742595169867236
0.09775,1.48105047235535,1.4742595169867236
0.09799999999999998,1.48105047235535,1.4739268457777084
0.09824999999999995,1.480711794633249,1.4739268457777084
0.09850000000000003,1.4803731169111483,1.4739268457777084
0.09875,1.4803731169111483,1.4739268457777084
0.09899999999999998,1.4803731169111483,1.4735941745686931
0.09924999999999995,1.4803731169111483,1.4735941745686931
0.09950000000000003,1.4803731169111483,1.4735941745686931
0.09975,1.4803731169111483,1.4732615033596779
0.09999999999999998,1.4800344391890474,1.4732615033596779
0.10024999999999995,1.4800344391890474,1.4732615033596779
0.10050000000000003,1.4800344391890474,1.4732615033596779
0.10075,1.4800344391890474,1.4732615033596779
0.10099999999999998,1.4796957614669466,1.4729288321506626
0.10124999999999995,1.4793570837448458,1.4729288321506626
0.10150000000000003,1.4793570837448458,1.4725961609416474
0.10175000000000001,1.479018406022745,1.4725961609416474
0.10199999999999998,1.479018406022745,1.4725961609416474
0.10224999999999995,1.478679728300644,1.4725961609416474
0.10250000000000004,1.478679728300644,1.4725961609416474
0.10275000000000001,1.4783410505785433,1.4725961609416474
0.10299999999999998,1.4780023728564424,1.4725961609416474
0.10324999999999995,1.4780023728564424,1.4725961609416474
0.10350000000000004,1.4780023728564424,1.4729288321506626
0.10375000000000001,1.4780023728564424,1.4725961609416474
0.10399999999999998,1.4780023728564424,1.4725961609416474
0.10424999999999995,1.4776636951343416,1.4725961609416474
0.10450000000000004,1.4776636951343416,1.4729288321506626
0.10475000000000001,1.4773250174122408,1.4725961609416474
0.10499999999999998,1.4776636951343416,1.4729288321506626
0.10524999999999995,1.4776636951343416,1.4729288321506626
0.10550000000000004,1.4776636951343416,1.4729288321506626
0.10575000000000001,1.4776636951343416,1.4729288321506626
0.10599999999999998,1.4780023728564424,1.4732615033596779
0.10624999999999996,1.4780023728564424,1.4732615033596779
0.10650000000000004,1.4783410505785433,1.4732615033596779
0.10675000000000001,1.478679728300644,1.4732615033596779
0.10699999999999998,1.478679728300644,1.4735941745686931
0.10724999999999996,1.479018406022745,1.4735941745686931
0.10750000000000004,1.479018406022745,1.4739268457777084
0.10775000000000001,1.4793570837448458,1.4739268457777084
0.10799999999999998,1.4793570837448458,1.4739268457777084
0.10824999999999996,1.4796957614669466,1.4739268457777084
0.10850000000000004,1.4800344391890474,1.4739268457777084
0.10875000000000001,1.4800344391890474,1.4742595169867236
0.10899999999999999,1.4803731169111483,1.4742595169867236
0.10924999999999996,1.4803731169111483,1.4742595169867236
0.10950000000000004,1.4803731169111483,1.474592188195739
0.10975000000000001,1.480711794633249,1.474592188195739
0.10999999999999999,1.480711794633249,1.474592188195739
0.11024999999999996,1.48105047235535,1.4749248594047542
0.11050000000000004,1.48105047235535,1.4749248594047542
0.11075000000000002,1.48105047235535,1.4749248594047542
0.11099999999999999,1.4813891500774508,1.4752575306137694
0.11124999999999996,1.4813891500774508,1.4752575306137694
0.11150000000000004,1.4817278277995516,1.4752575306137694
0.11175000000000002,1.4813891500774508,1.4752575306137694
0.11199999999999999,1.4817278277995516,1.4752575306137694
0.11224999999999996,1.4817278277995516,1.4752575306137694
0.11250000000000004,1.4817278277995516,1.4752575306137694
0.11275000000000002,1.4817278277995516,1.4755902018227847
0.11299999999999999,1.4817278277995516,1.4755902018227847
0.11324999999999996,1.4820665055216524,1.4752575306137694
0.11350000000000005,1.4817278277995516,1.4752575306137694
0.11375000000000002,1.4817278277995516,1.4752575306137694
0.11399999999999999,1.4817278277995516,1.4755902018227847
0.11424999999999996,1.4820665055216524,1.4755902018227847
0.11450000000000005,1.4817278277995516,1.4752575306137694
0.11475000000000002,1.4817278277995516,1.4752575306137694
0.11499999999999999,1.4820665055216524,1.4755902018227847
0.11524999999999996,1.4820665055216524,1.4752575306137694
0.11550000000000005,1.4817278277995516,1.4752575306137694
0.11575000000000002,1.4817278277995516,1.4752575306137694
0.11599999999999999,1.4817278277995516,1.4752575306137694
0.11624999999999996,1.4817278277995516,1.4749248594047542
0.11650000000000005,1.4817278277995516,1.4752575306137694
0.11675000000000002,1.4817278277995516,1.4752575306137694
0.11699999999999999,1.4817278277995516,1.4749248594047542
0.11724999999999997,1.4813891500774508,1.4749248594047542
0.11750000000000005,1.4813891500774508,1.4749248594047542
0.11775000000000002,1.4813891500774508,1.474592188195739
0.118,1.4813891500774508,1.474592188195739
0.11824999999999997,1.48105047235535,1.474592188195739
0.11850000000000005,1.48105047235535,1.4742595169867236
0.11875000000000002,1.480711794633249,1.4742595169867236
0.119,1.480711794633249,1.4742595169867236
0.11924999999999997,1.480711794633249,1.4739268457777084
0.11950000000000005,1.480711794633249,1.4739268457777084
0.11975000000000002,1.4803731169111483,1.4739268457777084
0.12,1.4800344391890474,1.4735941745686931
0.12024999999999997,1.4803731169111483,1.4735941745686931
0.12050000000000005,1.4800344391890474,1.4735941745686931
0.12075000000000002,1.4800344391890474,1.4735941745686931
0.121,1.4796957614669466,1.4735941745686931
0.12124999999999997,1.4796957614669466,1.4732615033596779
0.12150000000000005,1.4796957614669466,1.4732615033596779
0.12175000000000002,1.4796957614669466,1.4732615033596779
0.122,1.4793570837448458,1.4732615033596779
0.12224999999999997,1.4793570837448458,1.4732615033596779
0.12250000000000005,1.4793570837448458,1.4732615033596779
0.12275000000000003,1.4793570837448458,1.4729288321506626
0.123,1.4796957614669466,1.4729288321506626
0.12324999999999997,1.4793570837448458,1.4729288321506626
0.12350000000000005,1.4793570837448458,1.4729288321506626
0.12375000000000003,1.4796957614669466,1.4732615033596779
0.124,1.4793570837448458,1.4729288321506626
0.12424999999999997,1.4796957614669466,1.4729288321506626
0.12450000000000006,1.4796957614669466,1.4729288321506626
0.12475000000000003,1.4800344391890474,1.4732615033596779
0.125,1.4800344391890474,1.4732615033596779
0.12524999999999997,1.4800344391890474,1.4732615033596779
0.12549999999999994,1.4803731169111483,1.4735941745686931
0.12575000000000003,1.4803731169111483,1.4735941745686931
0.126,1.4803731169111483,1.4732615033596779
0.12624999999999997,1.480711794633249,1.4735941745686931
0.12649999999999995,1.480711794633249,1.4735941745686931
0.12675000000000003,1.480711794633249,1.4735941745686931
0.127,1.48105047235535,1.4735941745686931
0.12724999999999997,1.48105047235535,1.4739268457777084
0.12749999999999995,1.4813891500774508,1.4735941745686931
0.12775000000000003,1.4813891500774508,1.4735941745686931
0.128,1.4817278277995516,1.4739268457777084
0.12824999999999998,1.4820665055216524,1.4742595169867236
0.12849999999999995,1.4820665055216524,1.4742595169867236
0.12875000000000003,1.4824051832437533,1.4742595169867236
0.129,1.482743860965854,1.4742595169867236
0.12924999999999998,1.482743860965854,1.474592188195739
0.12949999999999995,1.483082538687955,1.474592188195739
0.12975000000000003,1.4834212164100558,1.474592188195739
0.13,1.4837598941321566,1.474592188195739
0.13024999999999998,1.4834212164100558,1.4749248594047542
0.13049999999999995,1.4837598941321566,1.4749248594047542
0.13075000000000003,1.4837598941321566,1.4749248594047542
0.131,1.4837598941321566,1.4749248594047542
0.13124999999999998,1.4840985718542572,1.4752575306137694
0.13149999999999995,1.484437249576358,1.4752575306137694
0.13175000000000003,1.484437249576358,1.4752575306137694
0.132,1.484437249576358,1.4755902018227847
0.13224999999999998,1.4840985718542572,1.4755902018227847
0.13249999999999995,1.4840985718542572,1.4755902018227847
0.13275000000000003,1.4837598941321566,1.4755902018227847
0.133,1.4834212164100558,1.4755902018227847
0.13324999999999998,1.4834212164100558,1.4755902018227847
0.13349999999999995,1.483082538687955,1.4755902018227847
0.13375000000000004,1.482743860965854,1.4755902018227847
0.134,1.4824051832437533,1.4755902018227847
0.13424999999999998,1.4824051832437533,1.4755902018227847
0.13449999999999995,1.4824051832437533,1.4755902018227847
0.13475000000000004,1.4824051832437533,1.4755902018227847
0.135,1.4820665055216524,1.4752575306137694
0.13524999999999998,1.4820665055216524,1.4752575306137694
0.13549999999999995,1.4817278277995516,1.4752575306137694
0.13575000000000004,1.4817278277995516,1.4752575306137694
0.136,1.4813891500774508,1.4752575306137694
0.13624999999999998,1.4813891500774508,1.4752575306137694
0.13649999999999995,1.4813891500774508,1.4752575306137694
0.13675000000000004,1.4813891500774508,1.4752575306137694
0.137,1.4813891500774508,1.4749248594047542
0.13724999999999998,1.48105047235535,1.4749248594047542
0.13749999999999996,1.48105047235535,1.474592188195739
0.13775000000000004,1.48105047235535,1.474592188195739
0.138,1.48105047235535,1.474592188195739
0.13824999999999998,1.48105047235535,1.474592188195739
0.13849999999999996,1.480711794633249,1.4742595169867236
0.13875000000000004,1.480711794633249,1.4742595169867236
0.139,1.480711794633249,1.4742595169867236
0.13924999999999998,1.4803731169111483,1.4742595169867236
0.13949999999999996,1.4803731169111483,1.4739268457777084
0.13975000000000004,1.4803731169111483,1.4742595169867236
0.14,1.4803731169111483,1.4739268457777084
0.14024999999999999,1.4803731169111483,1.4739268457777084
0.14049999999999996,1.4800344391890474,1.4735941745686931
0.14075000000000004,1.4796957614669466,1.4739268457777084
0.14100000000000001,1.4796957614669466,1.4735941745686931
0.14125,1.4796957614669466,1.4735941745686931
0.14149999999999996,1.4796957614669466,1.4735941745686931
0.14175000000000004,1.4793570837448458,1.4735941745686931
0.14200000000000002,1.4793570837448458,1.4735941745686931
0.14225,1.4796957614669466,1.4735941745686931
0.14249999999999996,1.4793570837448458,1.4735941745686931
0.14275000000000004,1.4796957614669466,1.4732615033596779
0.14300000000000002,1.4796957614669466,1.4732615033596779
0.14325,1.4793570837448458,1.4732615033596779
0.14349999999999996,1.4793570837448458,1.4732615033596779
0.14375000000000004,1.479018406022745,1.4732615033596779
0.14400000000000002,1.4793570837448458,1.4732615033596779
0.14425,1.479018406022745,1.4732615033596779
0.14449999999999996,1.479018406022745,1.4735941745686931
0.14475000000000005,1.479018406022745,1.4732615033596779
0.14500000000000002,1.4793570837448458,1.4735941745686931
0.14525,1.4793570837448458,1.4735941745686931
0.14549999999999996,1.479018406022745,1.4735941745686931
0.14575000000000005,1.4793570837448458,1.4735941745686931
0.14600000000000002,1.4796957614669466,1.4739268457777084
0.14625,1.4796957614669466,1.4739268457777084
0.14649999999999996,1.4796957614669466,1.4739268457777084
0.14675000000000005,1.4796957614669466,1.4739268457777084
0.14700000000000002,1.4800344391890474,1.4739268457777084
0.14725,1.4800344391890474,1.4742595169867236
0.14749999999999996,1.4800344391890474,1.4742595169867236
0.14775000000000005,1.4803731169111483,1.4742595169867236
0.14800000000000002,1.4803731169111483,1.4742595169867236
0.14825,1.4803731169111483,1.4742595169867236
0.14849999999999997,1.480711794633249,1.4742595169867236
0.14875000000000005,1.480711794633249,1.474592188195739
0.14900000000000002,1.480711794633249,1.474592188195739
0.14925,1.48105047235535,1.474592188195739
0.14949999999999997,1.48105047235535,1.4749248594047542
0.14975000000000005,1.48105047235535,1.4749248594047542
0.15000000000000002,1.4813891500774508,1.4749248594047542
0.15025,1.4813891500774508,1.4752575306137694
0.15049999999999997,1.4817278277995516,1.4752575306137694
0.15075000000000005,1.4817278277995516,1.4752575306137694
0.15100000000000002,1.4820665055216524,1.4752575306137694
0.15125,1.4820665055216524,1.4752575306137694
0.15149999999999997,1.4824051832437533,1.4752575306137694
0.15175000000000005,1.4824051832437533,1.4752575306137694
0.15200000000000002,1.4824051832437533,1.4752575306137694
0.15225,1.482743860965854,1.4752575306137694
0.15249999999999997,1.482743860965854,1.4752575306137694
0.15275000000000005,1.482743860965854,1.4752575306137694
0.15300000000000002,1.483082538687955,1.4755902018227847
0.15325,1.482743860965854,1.4752575306137694
0.15349999999999997,1.483082538687955,1.4752575306137694
0.15375000000000005,1.483082538687955,1.4755902018227847
0.15400000000000003,1.482743860965854,1.4752575306137694
0.15425,1.483082538687955,1.4755902018227847
0.15449999999999997,1.482743860965854,1.4752575306137694
0.15475000000000005,1.482743860965854,1.4752575306137694
0.15500000000000003,1.482743860965854,1.4752575306137694
0.15525,1.4824051832437533,1.4749248594047542
0.15549999999999997,1.4824051832437533,1.4749248594047542
0.15575000000000006,1.4824051832437533,1.4749248594047542
0.15600000000000003,1.4820665055216524,1.4749248594047542
0.15625,1.4820665055216524,1.4749248594047542
0.15649999999999997,1.4817278277995516,1.4749248594047542
0.15674999999999994,1.4813891500774508,1.474592188195739
0.15700000000000003,1.48105047235535,1.474592188195739
0.15725,1.480711794633249,1.474592188195739
0.15749999999999997,1.4803731169111483,1.4742595169867236
0.15774999999999995,1.4800344391890474,1.4742595169867236
0.15800000000000003,1.4800344391890474,1.4742595169867236
0.15825,1.4796957614669466,1.4739268457777084
0.15849999999999997,1.4796957614669466,1.4739268457777084
0.15874999999999995,1.4793570837448458,1.4739268457777084
0.15900000000000003,1.4793570837448458,1.4739268457777084
0.15925,1.479018406022745,1.4739268457777084
0.15949999999999998,1.479018406022745,1.4735941745686931
0.15974999999999995,1.479018406022745,1.4735941745686931
0.16000000000000003,1.478679728300644,1.4735941745686931
0.16025,1.478679728300644,1.4735941745686931
0.16049999999999998,1.4783410505785433,1.4735941745686931
0.16074999999999995,1.4783410505785433,1.4732615033596779
0.16100000000000003,1.4780023728564424,1.4732615033596779
0.16125,1.4780023728564424,1.4732615033596779
0.16149999999999998,1.4776636951343416,1.4732615033596779
0.16174999999999995,1.4776636951343416,1.4729288321506626
0.16200000000000003,1.4776636951343416,1.4729288321506626
0.16225,1.4776636951343416,1.4729288321506626
0.16249999999999998,1.4776636951343416,1.4729288321506626
0.16274999999999995,1.4773250174122408,1.4729288321506626
0.16300000000000003,1.4773250174122408,1.4729288321506626
0.16325,1.4773250174122408,1.4729288321506626
0.16349999999999998,1.4773250174122408,1.4729288321506626
0.16374999999999995,1.4773250174122408,1.4725961609416474
0.16400000000000003,1.4773250174122408,1.4725961609416474
0.16425,1.4776636951343416,1.4729288321506626
0.16449999999999998,1.4776636951343416,1.4729288321506626
0.16474999999999995,1.4780023728564424,1.4729288321506626
0.16500000000000004,1.4780023728564424,1.4729288321506626
0.16525,1.4780023728564424,1.4729288321506626
0.16549999999999998,1.4783410505785433,1.4732615033596779
0.16574999999999995,1.4783410505785433,1.4732615033596779
0.16600000000000004,1.478679728300644,1.4732615033596779
0.16625,1.478679728300644,1.4732615033596779
0.16649999999999998,1.479018406022745,1.4732615033596779
0.16674999999999995,1.4793570837448458,1.4732615033596779
0.16700000000000004,1.4793570837448458,1.4735941745686931
0.16725,1.4796957614669466,1.4735941745686931
0.16749999999999998,1.4796957614669466,1.4735941745686931
0.16774999999999995,1.4796957614669466,1.4735941745686931
0.16800000000000004,1.4800344391890474,1.4735941745686931
0.16825,1.4803731169111483,1.4739268457777084
0.16849999999999998,1.4803731169111483,1.4739268457777084
0.16874999999999996,1.4803731169111483,1.4739268457777084
0.16900000000000004,1.480711794633249,1.4742595169867236
0.16925,1.480711794633249,1.4742595169867236
0.16949999999999998,1.48105047235535,1.4742595169867236
0.16974999999999996,1.48105047235535,1.4742595169867236
0.17000000000000004,1.48105047235535,1.474592188195739
0.17025,1.48105047235535,1.474592188195739
0.17049999999999998,1.4813891500774508,1.4749248594047542
0.17074999999999996,1.4813891500774508,1.474592188195739
0.17100000000000004,1.4813891500774508,1.4749248594047542
0.17125,1.4817278277995516,1.4749248594047542
0.17149999999999999,1.4817278277995516,1.4749248594047542
0.17174999999999996,1.4817278277995516,1.4752575306137694
0.17200000000000004,1.4817278277995516,1.4752575306137694
0.17225000000000001,1.4817278277995516,1.4755902018227847
0.1725,1.4820665055216524,1.4755902018227847
0.17274999999999996,1.4820665055216524,1.4755902018227847
0.17300000000000004,1.4820665055216524,1.4755902018227847
0.17325000000000002,1.4820665055216524,1.4755902018227847
0.1735,1.4820665055216524,1.4755902018227847
0.17374999999999996,1.4820665055216524,1.4755902018227847
0.17400000000000004,1.4820665055216524,1.4755902018227847
0.17425000000000002,1.4817278277995516,1.4755902018227847
0.1745,1.4817278277995516,1.4755902018227847
0.17474999999999996,1.4817278277995516,1.4755902018227847
0.17500000000000004,1.4813891500774508,1.4755902018227847
0.17525000000000002,1.4813891500774508,1.4755902018227847
0.1755,1.48105047235535,1.4755902018227847
0.17574999999999996,1.480711794633249,1.4752575306137694
0.17600000000000005,1.4803731169111483,1.4752575306137694
0.17625000000000002,1.480711794633249,1.4752575306137694
0.1765,1.4803731169111483,1.4752575306137694
0.17674999999999996,1.4803731169111483,1.4752575306137694
0.17700000000000005,1.4803731169111483,1.4752575306137694
0.17725000000000002,1.4803731169111483,1.4749248594047542
0.1775,1.4800344391890474,1.4749248594047542
0.17774999999999996,1.4800344391890474,1.4749248594047542
0.17800000000000005,1.4796957614669466,1.474592188195739
0.17825000000000002,1.4796957614669466,1.474592188195739
0.1785,1.4793570837448458,1.474592188195739
0.17874999999999996,1.4793570837448458,1.474592188195739
0.17900000000000005,1.479018406022745,1.474592188195739
0.17925000000000002,1.478679728300644,1.4742595169867236
0.1795,1.478679728300644,1.4742595169867236
0.17974999999999997,1.478679728300644,1.4742595169867236
0.18000000000000005,1.478679728300644,1.4742595169867236
0.18025000000000002,1.4783410505785433,1.4742595169867236
0.1805,1.4783410505785433,1.4742595169867236
0.18074999999999997,1.4783410505785433,1.4739268457777084
0.18100000000000005,1.4783410505785433,1.4739268457777084
0.18125000000000002,1.4776636951343416,1.4739268457777084
0.1815,1.4773250174122408,1.4739268457777084
0.18174999999999997,1.4776636951343416,1.4735941745686931
0.18200000000000005,1.4776636951343416,1.4739268457777084
0.18225000000000002,1.4773250174122408,1.4735941745686931
0.1825,1.4773250174122408,1.4735941745686931
0.18274999999999997,1.4773250174122408,1.4735941745686931
0.18300000000000005,1.47698633969014,1.4735941745686931
0.18325000000000002,1.47698633969014,1.4735941745686931
0.1835,1.476647661968039,1.4735941745686931
0.18374999999999997,1.476647661968039,1.4735941745686931
0.18400000000000005,1.476647661968039,1.4735941745686931
0.18425000000000002,1.4763089842459383,1.4735941745686931
0.1845,1.4759703065238376,1.4735941745686931
0.18474999999999997,1.4759703065238376,1.4735941745686931
0.18500000000000005,1.4759703065238376,1.4735941745686931
0.18525000000000003,1.4763089842459383,1.4739268457777084
0.1855,1.4763089842459383,1.4739268457777084
0.18574999999999997,1.476647661968039,1.4739268457777084
0.18600000000000005,1.476647661968039,1.4742595169867236
0.18625000000000003,1.47698633969014,1.4742595169867236
0.1865,1.47698633969014,1.4742595169867236
0.18674999999999997,1.47698633969014,1.4742595169867236
0.18700000000000006,1.47698633969014,1.474592188195739
0.18725000000000003,1.47698633969014,1.474592188195739
0.1875,1.4776636951343416,1.474592188195739
0.18774999999999997,1.4776636951343416,1.4749248594047542
0.18799999999999994,1.4780023728564424,1.4752575306137694
0.18825000000000003,1.4776636951343416,1.4752575306137694
0.1885,1.4780023728564424,1.4752575306137694
0.18874999999999997,1.4783410505785433,1.4755902018227847
0.18899999999999995,1.4783410505785433,1.4755902018227847
0.18925000000000003,1.478679728300644,1.4755902018227847
0.1895,1.478679728300644,1.4755902018227847
0.18974999999999997,1.479018406022745,1.4755902018227847
0.18999999999999995,1.479018406022745,1.4759228730318
0.19025000000000003,1.4793570837448458,1.4759228730318
0.1905,1.4796957614669466,1.4759228730318
0.19074999999999998,1.4796957614669466,1.4759228730318
0.19099999999999995,1.4800344391890474,1.476255544240815
0.19125000000000003,1.4800344391890474,1.476255544240815
0.1915,1.4803731169111483,1.476255544240815
0.19174999999999998,1.480711794633249,1.476255544240815
0.19199999999999995,1.480711794633249,1.4765882154498302
0.19225000000000003,1.48105047235535,1.4765882154498302
0.1925,1.48105047235535,1.4765882154498302
0.19274999999999998,1.48105047235535,1.476255544240815
0.19299999999999995,1.4813891500774508,1.4765882154498302
0.19325000000000003,1.4813891500774508,1.476255544240815
0.1935,1.4813891500774508,1.476255544240815
0.19374999999999998,1.4813891500774508,1.4765882154498302
0.19399999999999995,1.4813891500774508,1.476255544240815
0.19425000000000003,1.4813891500774508,1.476255544240815
0.1945,1.4813891500774508,1.476255544240815
0.19474999999999998,1.4813891500774508,1.476255544240815
0.19499999999999995,1.4813891500774508,1.476255544240815
0.19525000000000003,1.48105047235535,1.4759228730318
0.1955,1.4813891500774508,1.4755902018227847
0.19574999999999998,1.48105047235535,1.4755902018227847
0.19599999999999995,1.48105047235535,1.4755902018227847
0.19625000000000004,1.48105047235535,1.4755902018227847
0.1965,1.48105047235535,1.4755902018227847
0.19674999999999998,1.48105047235535,1.4755902018227847
0.19699999999999995,1.480711794633249,1.4755902018227847
0.19725000000000004,1.480711794633249,1.4752575306137694
0.1975,1.480711794633249,1.4752575306137694
0.19774999999999998,1.4803731169111483,1.4755902018227847
0.19799999999999995,1.4803731169111483,1.4752575306137694
0.19825000000000004,1.4800344391890474,1.4752575306137694
0.1985,1.4800344391890474,1.4752575306137694
0.19874999999999998,1.4800344391890474,1.4752575306137694
0.19899999999999995,1.4796957614669466,1.4749248594047542
0.19925000000000004,1.4793570837448458,1.4749248594047542
0.1995,1.4793570837448458,1.4752575306137694
0.19974999999999998,1.4793570837448458,1.4749248594047542
0.19999999999999996,1.4793570837448458,1.4749248594047542
0.20025000000000004,1.479018406022745,1.4749248594047542
0.2005,1.479018406022745,1.4749248594047542
0.20074999999999998,1.479018406022745,1.4749248594047542
0.20099999999999996,1.478679728300644,1.4749248594047542
0.20125000000000004,1.478679728300644,1.4749248594047542
0.2015,1.4783410505785433,1.474592188195739
0.20174999999999998,1.4783410505785433,1.474592188195739
0.20199999999999996,1.4783410505785433,1.474592188195739
0.20225000000000004,1.4780023728564424,1.474592188195739
0.2025,1.4780023728564424,1.474592188195739
0.20274999999999999,1.4780023728564424,1.474592188195739
0.20299999999999996,1.4780023728564424,1.4742595169867236
0.20325000000000004,1.4780023728564424,1.4742595169867236
0.20350000000000001,1.4780023728564424,1.4742595169867236
0.20375,1.4780023728564424,1.4742595169867236
0.20399999999999996,1.4780023728564424,1.4742595169867236
0.20425000000000004,1.4783410505785433,1.474592188195739
0.20450000000000002,1.4783410505785433,1.474592188195739
0.20475,1.4783410505785433,1.474592188195739
0.20499999999999996,1.4783410505785433,1.474592188195739
0.20525000000000004,1.4783410505785433,1.474592188195739
0.20550000000000002,1.4783410505785433,1.474592188195739
0.20575,1.478679728300644,1.474592188195739
0.20599999999999996,1.478679728300644,1.4749248594047542
0.20625000000000004,1.478679728300644,1.4749248594047542
0.20650000000000002,1.479018406022745,1.4749248594047542
0.20675,1.479018406022745,1.4752575306137694
0.20699999999999996,1.479018406022745,1.4752575306137694
0.20725000000000005,1.4793570837448458,1.4752575306137694
0.20750000000000002,1.4793570837448458,1.4752575306137694
0.20775,1.4793570837448458,1.4752575306137694
0.20799999999999996,1.4796957614669466,1.4752575306137694
0.20825000000000005,1.4796957614669466,1.4752575306137694
0.20850000000000002,1.4800344391890474,1.4755902018227847
0.20875,1.4800344391890474,1.4755902018227847
0.20899999999999996,1.4803731169111483,1.4755902018227847
0.20925000000000005,1.4800344391890474,1.4759228730318
0.20950000000000002,1.4803731169111483,1.4755902018227847
0.20975,1.4803731169111483,1.4759228730318
0.20999999999999996,1.4803731169111483,1.4759228730318
0.21025000000000005,1.480711794633249,1.4759228730318
0.21050000000000002,1.480711794633249,1.476255544240815
0.21075,1.480711794633249,1.4759228730318
0.21099999999999997,1.48105047235535,1.4759228730318
0.21125000000000005,1.48105047235535,1.476255544240815
0.21150000000000002,1.48105047235535,1.4759228730318
0.21175,1.48105047235535,1.476255544240815
0.21199999999999997,1.4813891500774508,1.476255544240815
0.21225000000000005,1.4813891500774508,1.4765882154498302
0.21250000000000002,1.4813891500774508,1.4765882154498302
0.21275,1.4813891500774508,1.476255544240815
0.21299999999999997,1.4813891500774508,1.4765882154498302
0.21325000000000005,1.4813891500774508,1.4765882154498302
0.21350000000000002,1.4813891500774508,1.476255544240815
0.21375,1.4813891500774508,1.4765882154498302
0.21399999999999997,1.4813891500774508,1.4765882154498302
0.21425000000000005,1.4813891500774508,1.4765882154498302
0.21450000000000002,1.4813891500774508,1.4765882154498302
0.21475,1.4813891500774508,1.4765882154498302
0.21499999999999997,1.4813891500774508,1.4765882154498302
0.21525000000000005,1.4813891500774508,1.4765882154498302
0.21550000000000002,1.4813891500774508,1.476255544240815
0.21575,1.48105047235535,1.476255544240815
0.21599999999999997,1.480711794633249,1.4759228730318
0.21625000000000005,1.480711794633249,1.4759228730318
0.21650000000000003,1.48105047235535,1.4759228730318
0.21675,1.480711794633249,1.4759228730318
0.21699999999999997,1.480711794633249,1.4759228730318
0.21725000000000005,1.4803731169111483,1.4759228730318
0.21750000000000003,1.4803731169111483,1.4755902018227847
0.21775,1.4803731169111483,1.4755902018227847
0.21799999999999997,1.4803731169111483,1.4755902018227847
0.21825000000000006,1.4800344391890474,1.4752575306137694
0.21850000000000003,1.4800344391890474,1.4755902018227847
0.21875,1.4800344391890474,1.4755902018227847
0.21899999999999997,1.4800344391890474,1.4752575306137694
0.21924999999999994,1.4796957614669466,1.4752575306137694
0.21950000000000003,1.4796957614669466,1.4749248594047542
0.21975,1.4796957614669466,1.4749248594047542
0.21999999999999997,1.4793570837448458,1.4749248594047542
0.22024999999999995,1.4793570837448458,1.474592188195739
0.22050000000000003,1.479018406022745,1.4749248594047542
0.22075,1.4783410505785433,1.474592188195739
0.22099999999999997,1.4783410505785433,1.474592188195739
0.22124999999999995,1.4776636951343416,1.474592188195739
0.22150000000000003,1.4773250174122408,1.4742595169867236
0.22175,1.47698633969014,1.4742595169867236
0.22199999999999998,1.476647661968039,1.4742595169867236
0.22224999999999995,1.476647661968039,1.4742595169867236
0.22250000000000003,1.476647661968039,1.4742595169867236
0.22275,1.476647661968039,1.4742595169867236
0.22299999999999998,1.476647661968039,1.4742595169867236
0.22324999999999995,1.476647661968039,1.4742595169867236
0.22350000000000003,1.476647661968039,1.474592188195739
0.22375,1.476647661968039,1.4742595169867236
0.22399999999999998,1.476647661968039,1.4742595169867236
0.22424999999999995,1.476647661968039,1.474592188195739
0.22450000000000003,1.476647661968039,1.4742595169867236
0.22475,1.476647661968039,1.4742595169867236
0.22499999999999998,1.476647661968039,1.4742595169867236
0.22524999999999995,1.47698633969014,1.474592188195739
0.22550000000000003,1.47698633969014,1.474592188195739
0.22575,1.47698633969014,1.4749248594047542
0.22599999999999998,1.4773250174122408,1.4749248594047542
0.22624999999999995,1.4773250174122408,1.4749248594047542
0.22650000000000003,1.4776636951343416,1.4749248594047542
0.22675,1.4776636951343416,1.4749248594047542
0.22699999999999998,1.4776636951343416,1.4752575306137694
0.22724999999999995,1.4783410505785433,1.4752575306137694
0.22750000000000004,1.4783410505785433,1.4755902018227847
0.22775,1.4780023728564424,1.4752575306137694
0.22799999999999998,1.4783410505785433,1.4755902018227847
0.22824999999999995,1.478679728300644,1.4755902018227847
0.22850000000000004,1.478679728300644,1.4755902018227847
0.22875,1.479018406022745,1.4755902018227847
0.22899999999999998,1.479018406022745,1.4759228730318
0.22924999999999995,1.4793570837448458,1.4759228730318
0.22950000000000004,1.479018406022745,1.4759228730318
0.22975,1.4793570837448458,1.4759228730318
0.22999999999999998,1.4793570837448458,1.4759228730318
0.23024999999999995,1.4793570837448458,1.476255544240815
0.23050000000000004,1.4796957614669466,1.476255544240815
0.23075,1.4796957614669466,1.476255544240815
0.23099999999999998,1.4796957614669466,1.476255544240815
0.23124999999999996,1.4796957614669466,1.4765882154498302
0.23150000000000004,1.4800344391890474,1.4765882154498302
0.23175,1.4796957614669466,1.4765882154498302
0.23199999999999998,1.4800344391890474,1.4765882154498302
0.23224999999999996,1.4800344391890474,1.4769208866588455
0.23250000000000004,1.4803731169111483,1.4769208866588455
0.23275,1.4803731169111483,1.4769208866588455
0.23299999999999998,1.480711794633249,1.4769208866588455
0.23324999999999996,1.480711794633249,1.4769208866588455
0.23350000000000004,1.480711794633249,1.4769208866588455
0.23375,1.480711794633249,1.4769208866588455
0.23399999999999999,1.480711794633249,1.4769208866588455
0.23424999999999996,1.480711794633249,1.4765882154498302
0.23450000000000004,1.480711794633249,1.4769208866588455
0.23475000000000001,1.480711794633249,1.4769208866588455
0.235,1.480711794633249,1.4769208866588455
0.23524999999999996,1.4803731169111483,1.4765882154498302
0.23550000000000004,1.480711794633249,1.4769208866588455
0.23575000000000002,1.4803731169111483,1.4765882154498302
0.236,1.4800344391890474,1.4765882154498302
0.23624999999999996,1.4800344391890474,1.4765882154498302
0.23650000000000004,1.4796957614669466,1.4765882154498302
0.23675000000000002,1.4796957614669466,1.4765882154498302
0.237,1.4793570837448458,1.476255544240815
0.23724999999999996,1.4793570837448458,1.476255544240815
0.23750000000000004,1.4793570837448458,1.476255544240815
0.23775000000000002,1.479018406022745,1.476255544240815
0.238,1.479018406022745,1.4759228730318
0.23824999999999996,1.479018406022745,1.4759228730318
0.23850000000000005,1.479018406022745,1.4759228730318
0.23875000000000002,1.478679728300644,1.4755902018227847
0.239,1.478679728300644,1.4755902018227847
0.23924999999999996,1.4783410505785433,1.4755902018227847
0.23950000000000005,1.4783410505785433,1.4755902018227847
0.23975000000000002,1.4783410505785433,1.4752575306137694
0.24,1.4780023728564424,1.4752575306137694
0.24024999999999996,1.4780023728564424,1.4749248594047542
0.24050000000000005,1.4780023728564424,1.4749248594047542
0.24075000000000002,1.4776636951343416,1.4749248594047542
0.241,1.4776636951343416,1.4749248594047542
0.24124999999999996,1.4776636951343416,1.4749248594047542
0.24150000000000005,1.4776636951343416,1.474592188195739
0.24175000000000002,1.4776636951343416,1.4749248594047542
0.242,1.4776636951343416,1.474592188195739
0.24224999999999997,1.4776636951343416,1.474592188195739
0.24250000000000005,1.4776636951343416,1.474592188195739
0.24275000000000002,1.4776636951343416,1.474592188195739
0.243,1.4776636951343416,1.474592188195739
0.24324999999999997,1.4773250174122408,1.474592188195739
0.24350000000000005,1.4776636951343416,1.4749248594047542
0.24375000000000002,1.4776636951343416,1.4749248594047542
0.244,1.4773250174122408,1.474592188195739
0.24424999999999997,1.47698633969014,1.474592188195739
0.24450000000000005,1.47698633969014,1.4749248594047542
0.24475000000000002,1.47698633969014,1.4752575306137694
0.245,1.47698633969014,1.4752575306137694
0.24524999999999997,1.47698633969014,1.4752575306137694
0.24550000000000005,1.47698633969014,1.4752575306137694
0.24575000000000002,1.4773250174122408,1.4752575306137694
0.246,1.4773250174122408,1.4755902018227847
0.24624999999999997,1.4773250174122408,1.4755902018227847
0.24650000000000005,1.4776636951343416,1.4755902018227847
0.24675000000000002,1.4780023728564424,1.4755902018227847
0.247,1.4780023728564424,1.4755902018227847
0.24724999999999997,1.4780023728564424,1.4755902018227847
0.24750000000000005,1.4780023728564424,1.4759228730318
0.24775000000000003,1.4783410505785433,1.4759228730318
0.248,1.4783410505785433,1.4759228730318
0.24824999999999997,1.4783410505785433,1.476255544240815
0.24850000000000005,1.478679728300644,1.476255544240815
0.24875000000000003,1.479018406022745,1.4765882154498302
0.249,1.479018406022745,1.4765882154498302
0.24924999999999997,1.4793570837448458,1.476255544240815
0.24950000000000006,1.4793570837448458,1.4765882154498302
0.24975000000000003,1.4796957614669466,1.4769208866588455
0.25,1.4796957614669466,1.4769208866588455
0.25025,1.4800344391890474,1.4769208866588455
0.25049999999999994,1.4800344391890474,1.4769208866588455
0.25075000000000003,1.4803731169111483,1.4769208866588455
0.251,1.480711794633249,1.4769208866588455
0.25125,1.480711794633249,1.4772535578678607
0.25149999999999995,1.48105047235535,1.4772535578678607
0.25175000000000003,1.48105047235535,1.4772535578678607
0.252,1.48105047235535,1.4772535578678607
0.25225,1.4813891500774508,1.4772535578678607
0.25249999999999995,1.4813891500774508,1.4772535578678607
0.25275000000000003,1.4813891500774508,1.4772535578678607
0.253,1.4813891500774508,1.4772535578678607
0.25325,1.4817278277995516,1.4772535578678607
0.25349999999999995,1.4813891500774508,1.4772535578678607
0.25375000000000003,1.48105047235535,1.4772535578678607
0.254,1.480711794633249,1.4772535578678607
0.25425,1.4803731169111483,1.4772535578678607
0.25449999999999995,1.4803731169111483,1.4772535578678607
0.25475000000000003,1.4800344391890474,1.4772535578678607
0.255,1.4796957614669466,1.4769208866588455
0.25525,1.4796957614669466,1.4772535578678607
0.25549999999999995,1.4793570837448458,1.4772535578678607
0.25575000000000003,1.4796957614669466,1.4769208866588455
0.256,1.4793570837448458,1.4765882154498302
0.25625,1.4793570837448458,1.4765882154498302
0.25649999999999995,1.4793570837448458,1.4769208866588455
0.25675000000000003,1.4793570837448458,1.4769208866588455
0.257,1.479018406022745,1.4765882154498302
0.25725,1.479018406022745,1.4765882154498302
0.25749999999999995,1.478679728300644,1.476255544240815
0.25775000000000003,1.478679728300644,1.476255544240815
0.258,1.4783410505785433,1.476255544240815
0.25825,1.4783410505785433,1.4759228730318
0.25849999999999995,1.4780023728564424,1.4759228730318
0.25875000000000004,1.4780023728564424,1.4759228730318
0.259,1.4776636951343416,1.4759228730318
0.25925,1.4776636951343416,1.4759228730318
0.25949999999999995,1.4773250174122408,1.4755902018227847
0.25975000000000004,1.47698633969014,1.4755902018227847
0.26,1.47698633969014,1.4755902018227847
0.26025,1.47698633969014,1.4752575306137694
0.26049999999999995,1.476647661968039,1.4752575306137694
0.26075000000000004,1.4763089842459383,1.4752575306137694
0.261,1.4763089842459383,1.4752575306137694
0.26125,1.4759703065238376,1.4749248594047542
0.26149999999999995,1.4759703065238376,1.4749248594047542
0.26175000000000004,1.4759703065238376,1.4749248594047542
0.262,1.4759703065238376,1.4749248594047542
0.26225,1.4756316288017368,1.474592188195739
0.26249999999999996,1.4756316288017368,1.4749248594047542
0.26275000000000004,1.4756316288017368,1.474592188195739
0.263,1.4756316288017368,1.474592188195739
0.26325,1.475292951079636,1.474592188195739
0.26349999999999996,1.4756316288017368,1.474592188195739
0.26375000000000004,1.4756316288017368,1.474592188195739
0.264,1.4759703065238376,1.474592188195739
0.26425,1.4759703065238376,1.474592188195739
0.26449999999999996,1.4759703065238376,1.474592188195739
0.26475000000000004,1.4759703065238376,1.474592188195739
0.265,1.4763089842459383,1.474592188195739
0.26525,1.4763089842459383,1.474592188195739
0.26549999999999996,1.476647661968039,1.4749248594047542
0.26575000000000004,1.476647661968039,1.4749248594047542
0.266,1.476647661968039,1.4749248594047542
0.26625,1.47698633969014,1.4749248594047542
0.26649999999999996,1.47698633969014,1.4752575306137694
0.26675000000000004,1.4773250174122408,1.4749248594047542
0.267,1.4773250174122408,1.4752575306137694
0.26725,1.4773250174122408,1.4752575306137694
0.26749999999999996,1.4776636951343416,1.4752575306137694
0.26775000000000004,1.4776636951343416,1.4755902018227847
0.268,1.4780023728564424,1.4752575306137694
0.26825,1.4780023728564424,1.4755902018227847
0.26849999999999996,1.4783410505785433,1.4755902018227847
0.26875000000000004,1.4783410505785433,1.4759228730318
0.269,1.4783410505785433,1.4759228730318
0.26925,1.4783410505785433,1.476255544240815
0.26949999999999996,1.4783410505785433,1.4759228730318
0.26975000000000005,1.4783410505785433,1.476255544240815
0.27,1.4783410505785433,1.476255544240815
0.27025,1.478679728300644,1.4765882154498302
0.27049999999999996,1.478679728300644,1.4765882154498302
0.27075000000000005,1.478679728300644,1.4765882154498302
0.271,1.478679728300644,1.4765882154498302
0.27125,1.479018406022745,1.4769208866588455
0.27149999999999996,1.478679728300644,1.4769208866588455
0.27175000000000005,1.479018406022745,1.4769208866588455
0.272,1.4793570837448458,1.4769208866588455
0.27225,1.4793570837448458,1.4769208866588455
0.27249999999999996,1.4793570837448458,1.4772535578678607
0.27275000000000005,1.4793570837448458,1.4772535578678607
0.273,1.4793570837448458,1.4769208866588455
0.27325,1.479018406022745,1.4772535578678607
0.27349999999999997,1.478679728300644,1.4769208866588455
0.27375000000000005,1.478679728300644,1.4769208866588455
0.274,1.478679728300644,1.4772535578678607
0.27425,1.4783410505785433,1.4772535578678607
0.27449999999999997,1.4783410505785433,1.4772535578678607
0.27475000000000005,1.4783410505785433,1.4772535578678607
0.275,1.4783410505785433,1.4769208866588455
0.27525,1.4783410505785433,1.4772535578678607
0.27549999999999997,1.4783410505785433,1.4772535578678607
0.27575000000000005,1.4780023728564424,1.4769208866588455
0.276,1.4780023728564424,1.4769208866588455
0.27625,1.4780023728564424,1.4769208866588455
0.27649999999999997,1.4776636951343416,1.4772535578678607
0.27675000000000005,1.4776636951343416,1.4769208866588455
0.277,1.4776636951343416,1.4769208866588455
0.27725,1.4776636951343416,1.4765882154498302
0.27749999999999997,1.4773250174122408,1.4765882154498302
0.27775000000000005,1.47698633969014,1.4765882154498302
0.278,1.47698633969014,1.4765882154498302
0.27825,1.47698633969014,1.4765882154498302
0.27849999999999997,1.476647661968039,1.4765882154498302
0.27875000000000005,1.4763089842459383,1.476255544240815
0.279,1.4763089842459383,1.476255544240815
0.27925,1.4763089842459383,1.4759228730318
0.27949999999999997,1.4763089842459383,1.4759228730318
0.27975000000000005,1.4763089842459383,1.4759228730318
0.28,1.4759703065238376,1.4759228730318
0.28025,1.4759703065238376,1.4755902018227847
0.28049999999999997,1.4756316288017368,1.4755902018227847
0.28075000000000006,1.4756316288017368,1.4755902018227847
0.281,1.4756316288017368,1.4755902018227847
0.28125,1.4756316288017368,1.4755902018227847
0.2815,1.475292951079636,1.4752575306137694
0.28174999999999994,1.475292951079636,1.4752575306137694
0.28200000000000003,1.475292951079636,1.4752575306137694
0.28225,1.475292951079636,1.4752575306137694
0.2825,1.4749542733575352,1.4752575306137694
0.28274999999999995,1.4749542733575352,1.4749248594047542
0.28300000000000003,1.475292951079636,1.4752575306137694
0.28325,1.4749542733575352,1.4752575306137694
0.2835,1.4749542733575352,1.4752575306137694
0.28374999999999995,1.475292951079636,1.4752575306137694
0.28400000000000003,1.475292951079636,1.4752575306137694
0.28425,1.4756316288017368,1.4752575306137694
0.2845,1.475292951079636,1.4755902018227847
0.28474999999999995,1.4756316288017368,1.4752575306137694
0.28500000000000003,1.4756316288017368,1.4755902018227847
0.28525,1.4756316288017368,1.4755902018227847
0.2855,1.4759703065238376,1.4755902018227847
0.28574999999999995,1.4759703065238376,1.4755902018227847
0.28600000000000003,1.4759703065238376,1.4755902018227847
0.28625,1.4763089842459383,1.4755902018227847
0.2865,1.4763089842459383,1.4755902018227847
0.28674999999999995,1.476647661968039,1.4755902018227847
0.28700000000000003,1.4763089842459383,1.4755902018227847
0.28725,1.4763089842459383,1.4759228730318
0.2875,1.476647661968039,1.4759228730318
0.28774999999999995,1.476647661968039,1.476255544240815
0.28800000000000003,1.4763089842459383,1.476255544240815
0.28825,1.476647661968039,1.476255544240815
0.2885,1.476647661968039,1.476255544240815
0.28874999999999995,1.47698633969014,1.476255544240815
0.28900000000000003,1.47698633969014,1.4769208866588455
0.28925,1.47698633969014,1.4765882154498302
0.2895,1.4773250174122408,1.4769208866588455
0.28974999999999995,1.4773250174122408,1.4765882154498302
0.29000000000000004,1.4773250174122408,1.4769208866588455
0.29025,1.4773250174122408,1.4769208866588455
0.2905,1.4776636951343416,1.4772535578678607
0.29074999999999995,1.4780023728564424,1.4772535578678607
0.29100000000000004,1.4780023728564424,1.4769208866588455
0.29125,1.4783410505785433,1.4772535578678607
0.2915,1.4783410505785433,1.4772535578678607
0.29174999999999995,1.4783410505785433,1.4772535578678607
0.29200000000000004,1.4783410505785433,1.4772535578678607
0.29225,1.478679728300644,1.477586229076876
0.2925,1.479018406022745,1.477586229076876
0.29274999999999995,1.479018406022745,1.477586229076876
0.29300000000000004,1.479018406022745,1.477586229076876
0.29325,1.4793570837448458,1.477586229076876
0.2935,1.479018406022745,1.477586229076876
0.29374999999999996,1.4793570837448458,1.4779189002858912
0.29400000000000004,1.4793570837448458,1.477586229076876
0.29425,1.4793570837448458,1.477586229076876
0.2945,1.4793570837448458,1.477586229076876
0.29474999999999996,1.4793570837448458,1.477586229076876
0.29500000000000004,1.4793570837448458,1.477586229076876
0.29525,1.4793570837448458,1.477586229076876
0.2955,1.4793570837448458,1.4772535578678607
0.29574999999999996,1.4796957614669466,1.4772535578678607
0.29600000000000004,1.4796957614669466,1.4772535578678607
0.29625,1.4796957614669466,1.4772535578678607
0.2965,1.4800344391890474,1.4772535578678607
0.29674999999999996,1.4800344391890474,1.4772535578678607
0.29700000000000004,1.4800344391890474,1.4769208866588455
0.29725,1.4800344391890474,1.4769208866588455
0.2975,1.4796957614669466,1.4769208866588455
0.29774999999999996,1.4800344391890474,1.4769208866588455
0.29800000000000004,1.4796957614669466,1.4769208866588455
0.29825,1.4796957614669466,1.4765882154498302
0.2985,1.4796957614669466,1.4765882154498302
0.29874999999999996,1.4796957614669466,1.4765882154498302
0.29900000000000004,1.4793570837448458,1.4765882154498302
0.29925,1.479018406022745,1.476255544240815
0.2995,1.479018406022745,1.476255544240815
0.29974999999999996,1.479018406022745,1.476255544240815
0.30000000000000004,1.4783410505785433,1.4759228730318
0.30025,1.4783410505785433,1.4759228730318
0.3005,1.4780023728564424,1.4755902018227847
0.30074999999999996,1.4780023728564424,1.4759228730318
0.30100000000000005,1.4780023728564424,1.4755902018227847
0.30125,1.4783410505785433,1.4755902018227847
0.3015,1.4783410505785433,1.4755902018227847
0.30174999999999996,1.4783410505785433,1.4755902018227847
0.30200000000000005,1.4783410505785433,1.4752575306137694
0.30225,1.4783410505785433,1.4752575306137694
0.3025,1.4783410505785433,1.4752575306137694
0.30274999999999996,1.4783410505785433,1.4752575306137694
0.30300000000000005,1.4783410505785433,1.4752575306137694
0.30325,1.4783410505785433,1.4752575306137694
0.3035,1.4783410505785433,1.4752575306137694
0.30374999999999996,1.4783410505785433,1.4752575306137694
0.30400000000000005,1.478679728300644,1.4752575306137694
0.30425,1.478679728300644,1.4752575306137694
0.3045,1.478679728300644,1.4752575306137694
0.30474999999999997,1.478679728300644,1.4752575306137694
0.30500000000000005,1.478679728300644,1.4755902018227847
0.30525,1.479018406022745,1.4755902018227847
0.3055,1.479018406022745,1.4755902018227847
0.30574999999999997,1.479018406022745,1.4755902018227847
0.30600000000000005,1.479018406022745,1.4759228730318
0.30625,1.4793570837448458,1.4759228730318
0.3065,1.4793570837448458,1.4759228730318
0.30674999999999997,1.4793570837448458,1.476255544240815
0.30700000000000005,1.4793570837448458,1.476255544240815
0.30725,1.4796957614669466,1.476255544240815
0.3075,1.4796957614669466,1.476255544240815
0.30774999999999997,1.4796957614669466,1.476255544240815
0.30800000000000005,1.4796957614669466,1.4765882154498302
0.30825,1.4796957614669466,1.4765882154498302
0.3085,1.4796957614669466,1.4765882154498302
0.30874999999999997,1.4796957614669466,1.4765882154498302
0.30900000000000005,1.4796957614669466,1.4769208866588455
0.30925,1.4796957614669466,1.4769208866588455
0.3095,1.4800344391890474,1.4769208866588455
0.30974999999999997,1.4796957614669466,1.4772535578678607
0.31000000000000005,1.4800344391890474,1.4772535578678607
0.31025,1.4800344391890474,1.4772535578678607
0.3105,1.4803731169111483,1.4772535578678607
0.31074999999999997,1.4803731169111483,1.4772535578678607
0.31100000000000005,1.4803731169111483,1.4772535578678607
0.31125,1.4803731169111483,1.477586229076876
0.3115,1.4803731169111483,1.477586229076876
0.31174999999999997,1.480711794633249,1.4779189002858912
0.31200000000000006,1.480711794633249,1.4779189002858912
0.31225,1.480711794633249,1.4779189002858912
0.3125,1.480711794633249,1.4779189002858912
0.31275,1.480711794633249,1.4779189002858912
0.31299999999999994,1.480711794633249,1.4779189002858912
0.31325000000000003,1.480711794633249,1.4779189002858912
0.3135,1.480711794633249,1.4779189002858912
0.31375,1.480711794633249,1.4782515714949065
0.31399999999999995,1.480711794633249,1.4782515714949065
0.31425000000000003,1.480711794633249,1.4779189002858912
0.3145,1.4803731169111483,1.4779189002858912
0.31475,1.4803731169111483,1.4779189002858912
0.31499999999999995,1.4803731169111483,1.4779189002858912
0.31525000000000003,1.4800344391890474,1.4779189002858912
0.3155,1.4800344391890474,1.4779189002858912
0.31575,1.4800344391890474,1.477586229076876
0.31599999999999995,1.4800344391890474,1.477586229076876
0.31625000000000003,1.4796957614669466,1.4772535578678607
0.3165,1.4796957614669466,1.477586229076876
0.31675,1.4796957614669466,1.477586229076876
0.31699999999999995,1.4796957614669466,1.477586229076876
0.31725000000000003,1.4793570837448458,1.4772535578678607
0.3175,1.479018406022745,1.4772535578678607
0.31775,1.479018406022745,1.4772535578678607
0.31799999999999995,1.479018406022745,1.4772535578678607
0.31825000000000003,1.479018406022745,1.4772535578678607
0.3185,1.478679728300644,1.4769208866588455
0.31875,1.478679728300644,1.4769208866588455
0.31899999999999995,1.478679728300644,1.4769208866588455
0.31925000000000003,1.478679728300644,1.4769208866588455
0.3195,1.478679728300644,1.4765882154498302
0.31975,1.4783410505785433,1.4765882154498302
0.31999999999999995,1.4783410505785433,1.4765882154498302
0.32025000000000003,1.4783410505785433,1.4765882154498302
0.3205,1.4780023728564424,1.4765882154498302
0.32075,1.4776636951343416,1.476255544240815
0.32099999999999995,1.4776636951343416,1.476255544240815
0.32125000000000004,1.4776636951343416,1.476255544240815
0.3215,1.4776636951343416,1.4759228730318
0.32175,1.4776636951343416,1.4759228730318
0.32199999999999995,1.4776636951343416,1.4759228730318
0.32225000000000004,1.4776636951343416,1.4759228730318
0.3225,1.4776636951343416,1.4759228730318
0.32275,1.4776636951343416,1.4759228730318
0.32299999999999995,1.4773250174122408,1.4755902018227847
0.32325000000000004,1.4773250174122408,1.4759228730318
0.3235,1.4773250174122408,1.4759228730318
0.32375,1.4773250174122408,1.4759228730318
0.32399999999999995,1.4776636951343416,1.4759228730318
0.32425000000000004,1.4773250174122408,1.4759228730318
0.3245,1.4776636951343416,1.4759228730318
0.32475,1.4776636951343416,1.476255544240815
0.32499999999999996,1.4776636951343416,1.476255544240815
0.32525000000000004,1.4780023728564424,1.476255544240815
0.3255,1.4780023728564424,1.476255544240815
0.32575,1.4780023728564424,1.4765882154498302
0.32599999999999996,1.4783410505785433,1.4765882154498302
0.32625000000000004,1.4783410505785433,1.4765882154498302
0.3265,1.478679728300644,1.4765882154498302
0.32675,1.478679728300644,1.4765882154498302
0.32699999999999996,1.478679728300644,1.4769208866588455
0.32725000000000004,1.479018406022745,1.4769208866588455
0.3275,1.479018406022745,1.4769208866588455
0.32775,1.4793570837448458,1.4772535578678607
0.32799999999999996,1.4793570837448458,1.4772535578678607
0.32825000000000004,1.4793570837448458,1.4772535578678607
0.3285,1.4793570837448458,1.4772535578678607
0.32875,1.4796957614669466,1.4772535578678607
0.32899999999999996,1.4796957614669466,1.477586229076876
0.32925000000000004,1.4796957614669466,1.4772535578678607
0.3295,1.4800344391890474,1.477586229076876
0.32975,1.4800344391890474,1.477586229076876
0.32999999999999996,1.4803731169111483,1.477586229076876
0.33025000000000004,1.4803731169111483,1.4779189002858912
0.3305,1.4803731169111483,1.4779189002858912
0.33075,1.4803731169111483,1.4779189002858912
0.33099999999999996,1.480711794633249,1.4779189002858912
0.33125000000000004,1.48105047235535,1.4782515714949065
0.3315,1.48105047235535,1.4782515714949065
0.33175,1.48105047235535,1.4782515714949065
0.33199999999999996,1.48105047235535,1.4782515714949065
0.33225000000000005,1.4813891500774508,1.4782515714949065
0.3325,1.4813891500774508,1.4782515714949065
0.33275,1.4813891500774508,1.4785842427039217
0.33299999999999996,1.4817278277995516,1.4785842427039217
0.33325000000000005,1.4817278277995516,1.4785842427039217
0.3335,1.4817278277995516,1.4785842427039217
0.33375,1.4820665055216524,1.4785842427039217
0.33399999999999996,1.4820665055216524,1.4785842427039217
0.33425000000000005,1.4820665055216524,1.4785842427039217
0.3345,1.4820665055216524,1.4782515714949065
0.33475,1.4820665055216524,1.4782515714949065
0.33499999999999996,1.4820665055216524,1.4785842427039217
0.33525000000000005,1.4820665055216524,1.4782515714949065
0.3355,1.4820665055216524,1.4782515714949065
0.33575,1.4820665055216524,1.4782515714949065
0.33599999999999997,1.4820665055216524,1.4782515714949065
0.33625000000000005,1.4820665055216524,1.4779189002858912
0.3365,1.4820665055216524,1.4779189002858912
0.33675,1.4820665055216524,1.4779189002858912
0.33699999999999997,1.4817278277995516,1.477586229076876
0.33725000000000005,1.4817278277995516,1.477586229076876
0.3375,1.4817278277995516,1.477586229076876
0.33775,1.4813891500774508,1.477586229076876
0.33799999999999997,1.4817278277995516,1.4772535578678607
0.33825000000000005,1.4813891500774508,1.4772535578678607
0.3385,1.4813891500774508,1.4772535578678607
0.33875,1.4813891500774508,1.4772535578678607
0.33899999999999997,1.48105047235535,1.4769208866588455
0.33925000000000005,1.48105047235535,1.4769208866588455
0.3395,1.480711794633249,1.4769208866588455
0.33975,1.480711794633249,1.4769208866588455
0.33999999999999997,1.4803731169111483,1.4769208866588455
0.34025000000000005,1.4800344391890474,1.4769208866588455
0.3405,1.4796957614669466,1.4765882154498302
0.34075,1.4793570837448458,1.4765882154498302
0.34099999999999997,1.479018406022745,1.476255544240815
0.34125000000000005,1.478679728300644,1.476255544240815
0.3415,1.478679728300644,1.476255544240815
0.34175,1.4783410505785433,1.476255544240815
0.34199999999999997,1.4783410505785433,1.476255544240815
0.34225000000000005,1.4780023728564424,1.476255544240815
0.3425,1.4780023728564424,1.476255544240815
0.34275,1.4780023728564424,1.476255544240815
0.34299999999999997,1.4780023728564424,1.476255544240815
0.34325000000000006,1.4780023728564424,1.4759228730318
0.3435,1.4776636951343416,1.476255544240815
0.34375,1.4776636951343416,1.4759228730318
0.344,1.4776636951343416,1.4759228730318
0.34424999999999994,1.4776636951343416,1.4759228730318
0.34450000000000003,1.4776636951343416,1.4759228730318
0.34475,1.4776636951343416,1.476255544240815
0.345,1.4776636951343416,1.476255544240815
0.34524999999999995,1.4780023728564424,1.476255544240815
0.34550000000000003,1.4783410505785433,1.4765882154498302
0.34575,1.4783410505785433,1.4765882154498302
0.346,1.4783410505785433,1.4765882154498302
0.34624999999999995,1.478679728300644,1.4765882154498302
0.34650000000000003,1.478679728300644,1.4765882154498302
0.34675,1.479018406022745,1.4765882154498302
0.347,1.478679728300644,1.4765882154498302
0.34724999999999995,1.479018406022745,1.4769208866588455
0.34750000000000003,1.4793570837448458,1.4765882154498302
0.34775,1.4793570837448458,1.4769208866588455
0.348,1.4793570837448458,1.4769208866588455
0.34824999999999995,1.4796957614669466,1.4772535578678607
0.34850000000000003,1.4796957614669466,1.4769208866588455
0.34875,1.4800344391890474,1.4772535578678607
0.349,1.4796957614669466,1.4772535578678607
0.34924999999999995,1.4800344391890474,1.477586229076876
0.34950000000000003,1.4800344391890474,1.477586229076876
0.34975,1.4803731169111483,1.477586229076876
0.35,1.4803731169111483,1.477586229076876
0.35024999999999995,1.480711794633249,1.477586229076876
0.35050000000000003,1.480711794633249,1.477586229076876
0.35075,1.48105047235535,1.477586229076876
0.351,1.48105047235535,1.4779189002858912
0.35124999999999995,1.48105047235535,1.4779189002858912
0.35150000000000003,1.4813891500774508,1.4779189002858912
0.35175,1.4813891500774508,1.4779189002858912
0.352,1.4813891500774508,1.4779189002858912
0.35224999999999995,1.4817278277995516,1.4782515714949065
0.35250000000000004,1.4817278277995516,1.4782515714949065
0.35275,1.4817278277995516,1.4782515714949065
0.353,1.4813891500774508,1.4779189002858912
0.35324999999999995,1.4817278277995516,1.4782515714949065
0.35350000000000004,1.4817278277995516,1.4782515714949065
0.35375,1.4820665055216524,1.4782515714949065
0.354,1.4820665055216524,1.4782515714949065
0.35424999999999995,1.4824051832437533,1.4782515714949065
0.35450000000000004,1.4820665055216524,1.4782515714949065
0.35475,1.4824051832437533,1.4782515714949065
0.355,1.4820665055216524,1.4782515714949065
0.35524999999999995,1.4820665055216524,1.4779189002858912
0.35550000000000004,1.4820665055216524,1.4779189002858912
0.35575,1.4820665055216524,1.4779189002858912
0.356,1.4817278277995516,1.4779189002858912
0.35624999999999996,1.4817278277995516,1.4779189002858912
0.35650000000000004,1.4817278277995516,1.4779189002858912
0.35675,1.4813891500774508,1.4779189002858912
0.357,1.4813891500774508,1.477586229076876
0.35724999999999996,1.48105047235535,1.477586229076876
0.35750000000000004,1.48105047235535,1.4772535578678607
0.35775,1.48105047235535,1.4772535578678607
0.358,1.480711794633249,1.4772535578678607
0.35824999999999996,1.4803731169111483,1.4772535578678607
0.35850000000000004,1.4803731169111483,1.4772535578678607
0.35875,1.4800344391890474,1.4769208866588455
0.359,1.4800344391890474,1.4769208866588455
0.35924999999999996,1.4800344391890474,1.4769208866588455
0.35950000000000004,1.4800344391890474,1.4769208866588455
0.35975,1.4800344391890474,1.4765882154498302
0.36,1.4800344391890474,1.476255544240815
0.36024999999999996,1.4796957614669466,1.476255544240815
0.36050000000000004,1.4796957614669466,1.476255544240815
0.36075,1.4793570837448458,1.476255544240815
0.361,1.478679728300644,1.4759228730318
0.36124999999999996,1.4783410505785433,1.4759228730318
0.36150000000000004,1.4783410505785433,1.4759228730318
0.36175,1.4780023728564424,1.4759228730318
0.362,1.4776636951343416,1.4759228730318
0.36224999999999996,1.4773250174122408,1.4759228730318
0.36250000000000004,1.4773250174122408,1.4759228730318
0.36275,1.47698633969014,1.4759228730318
0.363,1.476647661968039,1.4755902018227847
0.36324999999999996,1.476647661968039,1.4759228730318
0.36350000000000005,1.476647661968039,1.4759228730318
0.36375,1.47698633969014,1.476255544240815
0.364,1.47698633969014,1.4759228730318
0.36424999999999996,1.4773250174122408,1.476255544240815
0.36450000000000005,1.4776636951343416,1.476255544240815
0.36475,1.4776636951343416,1.476255544240815
0.365,1.4780023728564424,1.476255544240815
0.36524999999999996,1.4780023728564424,1.476255544240815
0.36550000000000005,1.4780023728564424,1.476255544240815
0.36575,1.4783410505785433,1.476255544240815
0.366,1.4783410505785433,1.476255544240815
0.36624999999999996,1.4783410505785433,1.476255544240815
0.36650000000000005,1.4783410505785433,1.4765882154498302
0.36675,1.4783410505785433,1.4765882154498302
0.367,1.478679728300644,1.4765882154498302
0.36724999999999997,1.478679728300644,1.4769208866588455
0.36750000000000005,1.4783410505785433,1.4769208866588455
0.36775,1.4783410505785433,1.4772535578678607
0.368,1.478679728300644,1.4769208866588455
0.36824999999999997,1.4793570837448458,1.4772535578678607
0.36850000000000005,1.4793570837448458,1.4772535578678607
0.36875,1.4793570837448458,1.4772535578678607
0.369,1.4796957614669466,1.477586229076876
0.36924999999999997,1.4796957614669466,1.4772535578678607
0.36950000000000005,1.4796957614669466,1.4772535578678607
0.36975,1.4796957614669466,1.477586229076876
0.37,1.4800344391890474,1.477586229076876
0.37024999999999997,1.4800344391890474,1.4779189002858912
0.37050000000000005,1.4803731169111483,1.4779189002858912
0.37075,1.4803731169111483,1.4779189002858912
0.371,1.480711794633249,1.4782515714949065
0.37124999999999997,1.480711794633249,1.4782515714949065
0.37150000000000005,1.48105047235535,1.4782515714949065
0.37175,1.48105047235535,1.4785842427039217
0.372,1.48105047235535,1.4785842427039217
0.37224999999999997,1.4813891500774508,1.4785842427039217
0.37250000000000005,1.4813891500774508,1.4785842427039217
0.37275,1.4813891500774508,1.4785842427039217
0.373,1.4817278277995516,1.4785842427039217
0.37324999999999997,1.4817278277995516,1.4785842427039217
0.37350000000000005,1.4817278277995516,1.4785842427039217
0.37375,1.4813891500774508,1.4785842427039217
0.374,1.4813891500774508,1.4785842427039217
0.37424999999999997,1.4817278277995516,1.4785842427039217
0.37450000000000006,1.4817278277995516,1.4785842427039217
0.37475,1.4813891500774508,1.4782515714949065
0.375,1.4813891500774508,1.4785842427039217
0.37525,1.4813891500774508,1.4782515714949065
0.37549999999999994,1.48105047235535,1.4782515714949065
0.37575000000000003,1.4813891500774508,1.4782515714949065
0.376,1.48105047235535,1.4779189002858912
0.37625,1.48105047235535,1.4782515714949065
0.37649999999999995,1.480711794633249,1.4779189002858912
0.37675000000000003,1.480711794633249,1.4779189002858912
0.377,1.4803731169111483,1.477586229076876
0.37725,1.4803731169111483,1.477586229076876
0.37749999999999995,1.4803731169111483,1.477586229076876
0.37775000000000003,1.4803731169111483,1.477586229076876
0.378,1.4800344391890474,1.477586229076876
0.37825,1.4800344391890474,1.4772535578678607
0.37849999999999995,1.4800344391890474,1.4772535578678607
0.37875000000000003,1.4800344391890474,1.4772535578678607
0.379,1.4796957614669466,1.4772535578678607
0.37925,1.4796957614669466,1.4772535578678607
0.37949999999999995,1.4796957614669466,1.4772535578678607
0.37975000000000003,1.4793570837448458,1.4772535578678607
0.38,1.4793570837448458,1.4769208866588455
0.38025,1.479018406022745,1.4769208866588455
0.38049999999999995,1.478679728300644,1.4769208866588455
0.38075000000000003,1.478679728300644,1.4765882154498302
0.381,1.478679728300644,1.4765882154498302
0.38125,1.478679728300644,1.4765882154498302
0.38149999999999995,1.4783410505785433,1.4765882154498302
0.38175000000000003,1.4783410505785433,1.476255544240815
0.382,1.4783410505785433,1.476255544240815
0.38225,1.4780023728564424,1.476255544240815
0.38249999999999995,1.4780023728564424,1.476255544240815
0.38275000000000003,1.4780023728564424,1.476255544240815
0.383,1.4780023728564424,1.476255544240815
0.38325,1.4780023728564424,1.476255544240815
0.38349999999999995,1.4780023728564424,1.476255544240815
0.38375000000000004,1.4783410505785433,1.476255544240815
0.384,1.4780023728564424,1.476255544240815
0.38425,1.4780023728564424,1.476255544240815
0.38449999999999995,1.4783410505785433,1.476255544240815
0.38475000000000004,1.4780023728564424,1.476255544240815
0.385,1.4783410505785433,1.4765882154498302
0.38525,1.4783410505785433,1.4765882154498302
0.38549999999999995,1.4783410505785433,1.4765882154498302
0.38575000000000004,1.478679728300644,1.4765882154498302
0.386,1.479018406022745,1.4765882154498302
0.38625,1.479018406022745,1.4769208866588455
0.38649999999999995,1.479018406022745,1.4765882154498302
0.38675000000000004,1.4793570837448458,1.4765882154498302
0.387,1.4793570837448458,1.4769208866588455
0.38725,1.4796957614669466,1.4769208866588455
0.38749999999999996,1.4796957614669466,1.4769208866588455
0.38775000000000004,1.4800344391890474,1.4772535578678607
0.388,1.4800344391890474,1.4772535578678607
0.38825,1.4800344391890474,1.477586229076876
0.38849999999999996,1.4803731169111483,1.477586229076876
0.38875000000000004,1.4803731169111483,1.477586229076876
0.389,1.4803731169111483,1.4779189002858912
0.38925,1.480711794633249,1.4779189002858912
0.38949999999999996,1.480711794633249,1.4779189002858912
0.38975000000000004,1.48105047235535,1.4779189002858912
0.39,1.48105047235535,1.4779189002858912
0.39025,1.4813891500774508,1.4782515714949065
0.39049999999999996,1.4813891500774508,1.4782515714949065
0.39075000000000004,1.4813891500774508,1.4782515714949065
0.391,1.4813891500774508,1.4782515714949065
0.39125,1.4817278277995516,1.4782515714949065
0.39149999999999996,1.4813891500774508,1.4782515714949065
0.39175000000000004,1.4813891500774508,1.4782515714949065
0.392,1.4817278277995516,1.4782515714949065
0.39225,1.4817278277995516,1.4785842427039217
0.39249999999999996,1.4820665055216524,1.4785842427039217
0.39275000000000004,1.4820665055216524,1.4785842427039217
0.393,1.4824051832437533,1.4785842427039217
0.39325,1.4824051832437533,1.478916913912937
0.39349999999999996,1.4824051832437533,1.4785842427039217
0.39375000000000004,1.4824051832437533,1.4785842427039217
0.394,1.4824051832437533,1.478916913912937
0.39425,1.4824051832437533,1.4785842427039217
0.39449999999999996,1.4824051832437533,1.4785842427039217
0.39475000000000005,1.4824051832437533,1.4785842427039217
0.395,1.4824051832437533,1.4785842427039217
0.39525,1.4824051832437533,1.4782515714949065
0.39549999999999996,1.482743860965854,1.4782515714949065
0.39575000000000005,1.4820665055216524,1.4782515714949065
0.396,1.4824051832437533,1.4782515714949065
0.39625,1.4820665055216524,1.4779189002858912
0.39649999999999996,1.4820665055216524,1.4779189002858912
0.39675000000000005,1.4820665055216524,1.4779189002858912
0.397,1.4817278277995516,1.4779189002858912
0.39725,1.4817278277995516,1.4779189002858912
0.39749999999999996,1.4817278277995516,1.477586229076876
0.39775000000000005,1.4813891500774508,1.4779189002858912
0.398,1.4813891500774508,1.477586229076876
0.39825,1.48105047235535,1.477586229076876
0.39849999999999997,1.480711794633249,1.4772535578678607
0.39875000000000005,1.480711794633249,1.4772535578678607
0.399,1.4803731169111483,1.4772535578678607
0.39925,1.4803731169111483,1.4769208866588455
0.39949999999999997,1.4796957614669466,1.4769208866588455
0.39975000000000005,1.4796957614669466,1.4769208866588455
0.4,1.4796957614669466,1.4769208866588455
0.40025,1.4793570837448458,1.4765882154498302
0.40049999999999997,1.4793570837448458,1.4765882154498302
0.40075000000000005,1.479018406022745,1.476255544240815
0.401,1.479018406022745,1.476255544240815
0.40125,1.479018406022745,1.476255544240815
0.40149999999999997,1.478679728300644,1.476255544240815
0.40175000000000005,1.478679728300644,1.476255544240815
0.402,1.4783410505785433,1.476255544240815
0.40225,1.4783410505785433,1.476255544240815
0.40249999999999997,1.4783410505785433,1.4759228730318
0.40275000000000005,1.4783410505785433,1.476255544240815
0.403,1.4783410505785433,1.476255544240815
0.40325,1.4783410505785433,1.4759228730318
0.40349999999999997,1.4783410505785433,1.4759228730318
0.40375000000000005,1.4783410505785433,1.4759228730318
0.404,1.4783410505785433,1.476255544240815
0.40425,1.4783410505785433,1.4759228730318
0.40449999999999997,1.478679728300644,1.476255544240815
0.40475000000000005,1.478679728300644,1.476255544240815
0.405,1.478679728300644,1.476255544240815
0.40525,1.478679728300644,1.476255544240815
0.40549999999999997,1.479018406022745,1.4765882154498302
0.40575000000000006,1.479018406022745,1.4765882154498302
0.406,1.479018406022745,1.4765882154498302
0.40625,1.4793570837448458,1.4765882154498302
0.4065,1.4796957614669466,1.4765882154498302
0.40674999999999994,1.4796957614669466,1.4765882154498302
0.40700000000000003,1.4800344391890474,1.4765882154498302
0.40725,1.4800344391890474,1.4769208866588455
0.4075,1.4800344391890474,1.4769208866588455
0.40774999999999995,1.4803731169111483,1.4772535578678607
0.40800000000000003,1.480711794633249,1.4772535578678607
0.40825,1.480711794633249,1.4772535578678607
0.4085,1.48105047235535,1.477586229076876
0.40874999999999995,1.4813891500774508,1.4772535578678607
0.40900000000000003,1.4813891500774508,1.477586229076876
0.40925,1.4813891500774508,1.477586229076876
0.4095,1.4813891500774508,1.477586229076876
0.40974999999999995,1.4817278277995516,1.477586229076876
0.41000000000000003,1.4820665055216524,1.477586229076876
0.41025,1.4820665055216524,1.4779189002858912
0.4105,1.4824051832437533,1.4779189002858912
0.41074999999999995,1.4824051832437533,1.477586229076876
0.41100000000000003,1.4824051832437533,1.4779189002858912
0.41125,1.4824051832437533,1.4779189002858912
0.4115,1.482743860965854,1.4779189002858912
0.41174999999999995,1.482743860965854,1.4779189002858912
0.41200000000000003,1.482743860965854,1.4779189002858912
0.41225,1.483082538687955,1.4782515714949065
0.4125,1.483082538687955,1.4779189002858912
0.41274999999999995,1.483082538687955,1.4782515714949065
0.41300000000000003,1.483082538687955,1.4782515714949065
0.41325,1.4834212164100558,1.4779189002858912
0.4135,1.483082538687955,1.4779189002858912
0.41374999999999995,1.483082538687955,1.4782515714949065
0.41400000000000003,1.483082538687955,1.4782515714949065
0.41425,1.483082538687955,1.4782515714949065
0.4145,1.483082538687955,1.4782515714949065
0.41474999999999995,1.482743860965854,1.4782515714949065
0.41500000000000004,1.482743860965854,1.4782515714949065
0.41525,1.482743860965854,1.4782515714949065
0.4155,1.4824051832437533,1.4782515714949065
0.41574999999999995,1.4824051832437533,1.4782515714949065
0.41600000000000004,1.4824051832437533,1.4779189002858912
0.41625,1.4820665055216524,1.4779189002858912
0.4165,1.4820665055216524,1.4779189002858912
0.41674999999999995,1.4820665055216524,1.4779189002858912
0.41700000000000004,1.4820665055216524,1.4779189002858912
0.41725,1.4820665055216524,1.477586229076876
0.4175,1.4817278277995516,1.477586229076876
0.41774999999999995,1.4817278277995516,1.4772535578678607
0.41800000000000004,1.4817278277995516,1.4772535578678607
0.41825,1.4817278277995516,1.4772535578678607
0.4185,1.4813891500774508,1.4772535578678607
0.41874999999999996,1.4813891500774508,1.4769208866588455
0.41900000000000004,1.4813891500774508,1.4769208866588455
0.41925,1.4813891500774508,1.4769208866588455
0.4195,1.48105047235535,1.4769208866588455
0.41974999999999996,1.48105047235535,1.4765882154498302
0.42000000000000004,1.48105047235535,1.4765882154498302
0.42025,1.48105047235535,1.4765882154498302
0.4205,1.480711794633249,1.476255544240815
0.42074999999999996,1.480711794633249,1.476255544240815
0.42100000000000004,1.480711794633249,1.476255544240815
0.42125,1.480711794633249,1.476255544240815
0.4215,1.4803731169111483,1.4759228730318
0.42174999999999996,1.4803731169111483,1.4759228730318
0.42200000000000004,1.4803731169111483,1.4759228730318
0.42225,1.4800344391890474,1.4759228730318
0.4225,1.4800344391890474,1.4759228730318
0.42274999999999996,1.4800344391890474,1.4755902018227847
0.42300000000000004,1.4800344391890474,1.4755902018227847
0.42325,1.4800344391890474,1.4755902018227847
0.4235,1.4800344391890474,1.4759228730318
0.42374999999999996,1.4800344391890474,1.4759228730318
0.42400000000000004,1.4800344391890474,1.4759228730318
0.42425,1.4800344391890474,1.4759228730318
0.4245,1.4800344391890474,1.4755902018227847
0.42474999999999996,1.4803731169111483,1.4759228730318
0.42500000000000004,1.4803731169111483,1.4759228730318
0.42525,1.4803731169111483,1.4759228730318
0.4255,1.480711794633249,1.4759228730318
0.42574999999999996,1.480711794633249,1.4759228730318
0.42600000000000005,1.480711794633249,1.4759228730318
0.42625,1.480711794633249,1.4759228730318
0.4265,1.480711794633249,1.4759228730318
0.42674999999999996,1.480711794633249,1.4759228730318
0.42700000000000005,1.4803731169111483,1.4759228730318
0.42725,1.4803731169111483,1.476255544240815
0.4275,1.480711794633249,1.4765882154498302
0.42774999999999996,1.480711794633249,1.4765882154498302
0.42800000000000005,1.480711794633249,1.4765882154498302
0.42825,1.48105047235535,1.4769208866588455
0.4285,1.480711794633249,1.4769208866588455
0.42874999999999996,1.48105047235535,1.4769208866588455
0.42900000000000005,1.48105047235535,1.4769208866588455
0.42925,1.4813891500774508,1.4769208866588455
0.4295,1.4813891500774508,1.4769208866588455
0.42974999999999997,1.4813891500774508,1.4769208866588455
0.43000000000000005,1.4813891500774508,1.4769208866588455
0.43025,1.4817278277995516,1.4772535578678607
0.4305,1.4817278277995516,1.4772535578678607
0.43074999999999997,1.4817278277995516,1.4772535578678607
0.43100000000000005,1.4820665055216524,1.4772535578678607
0.43125,1.4820665055216524,1.4772535578678607
0.4315,1.4820665055216524,1.4772535578678607
0.43174999999999997,1.4817278277995516,1.4772535578678607
0.43200000000000005,1.4820665055216524,1.477586229076876
0.43225,1.4820665055216524,1.477586229076876
0.4325,1.4820665055216524,1.477586229076876
0.43274999999999997,1.4820665055216524,1.477586229076876
0.43300000000000005,1.4820665055216524,1.477586229076876
0.43325,1.4820665055216524,1.477586229076876
0.4335,1.4820665055216524,1.477586229076876
0.43374999999999997,1.4820665055216524,1.477586229076876
0.43400000000000005,1.4817278277995516,1.477586229076876
0.43425,1.4820665055216524,1.477586229076876
0.4345,1.4820665055216524,1.477586229076876
0.43474999999999997,1.4820665055216524,1.477586229076876
0.43500000000000005,1.4820665055216524,1.477586229076876
0.43525,1.4824051832437533,1.477586229076876
0.4355,1.4824051832437533,1.477586229076876
0.43574999999999997,1.4824051832437533,1.4779189002858912
0.43600000000000005,1.4824051832437533,1.4772535578678607
0.43625,1.4824051832437533,1.477586229076876
0.4365,1.4824051832437533,1.477586229076876
0.43674999999999997,1.4824051832437533,1.4779189002858912
0.43700000000000006,1.4820665055216524,1.477586229076876
0.43725,1.4820665055216524,1.4772535578678607
0.4375,1.4820665055216524,1.4772535578678607
0.43775,1.4820665055216524,1.4772535578678607
0.43799999999999994,1.4820665055216524,1.4772535578678607
0.43825000000000003,1.4817278277995516,1.4769208866588455
0.4385,1.4817278277995516,1.4769208866588455
0.43875,1.4817278277995516,1.4769208866588455
0.43899999999999995,1.4817278277995516,1.4769208866588455
0.43925000000000003,1.4817278277995516,1.4769208866588455
0.4395,1.4817278277995516,1.4765882154498302
0.43975,1.4817278277995516,1.4765882154498302
0.43999999999999995,1.4813891500774508,1.4765882154498302
0.44025000000000003,1.4813891500774508,1.476255544240815
0.4405,1.48105047235535,1.476255544240815
0.44075,1.48105047235535,1.476255544240815
0.44099999999999995,1.480711794633249,1.4759228730318
0.44125000000000003,1.4803731169111483,1.4759228730318
0.4415,1.4803731169111483,1.4759228730318
0.44175,1.4800344391890474,1.4755902018227847
0.44199999999999995,1.4800344391890474,1.4755902018227847
0.44225000000000003,1.4800344391890474,1.4755902018227847
0.4425,1.4800344391890474,1.4755902018227847
0.44275,1.4796957614669466,1.4755902018227847
0.44299999999999995,1.4796957614669466,1.4755902018227847
0.44325000000000003,1.4796957614669466,1.4755902018227847
0.4435,1.4800344391890474,1.4755902018227847
0.44375,1.4800344391890474,1.4755902018227847
0.44399999999999995,1.4800344391890474,1.4759228730318
0.44425000000000003,1.4803731169111483,1.4759228730318
0.4445,1.4800344391890474,1.4759228730318
0.44475,1.4800344391890474,1.4759228730318
0.44499999999999995,1.4803731169111483,1.4759228730318
0.44525000000000003,1.4803731169111483,1.4759228730318
0.4455,1.4803731169111483,1.476255544240815
0.44575,1.480711794633249,1.476255544240815
0.44599999999999995,1.480711794633249,1.476255544240815
0.44625000000000004,1.48105047235535,1.476255544240815
0.4465,1.48105047235535,1.476255544240815
0.44675,1.480711794633249,1.4765882154498302
0.44699999999999995,1.480711794633249,1.4765882154498302
0.44725000000000004,1.480711794633249,1.4765882154498302
0.4475,1.4803731169111483,1.4765882154498302
0.44775,1.4803731169111483,1.4765882154498302
0.44799999999999995,1.4803731169111483,1.4765882154498302
0.44825000000000004,1.4803731169111483,1.4769208866588455
0.4485,1.4803731169111483,1.4769208866588455
0.44875,1.4803731169111483,1.4772535578678607
0.44899999999999995,1.480711794633249,1.4772535578678607
0.44925000000000004,1.480711794633249,1.4772535578678607
0.4495,1.48105047235535,1.4772535578678607
0.44975,1.48105047235535,1.477586229076876
0.44999999999999996,1.48105047235535,1.477586229076876
0.45025000000000004,1.48105047235535,1.477586229076876
0.4505,1.4813891500774508,1.4779189002858912
0.45075,1.4813891500774508,1.4779189002858912
0.45099999999999996,1.4817278277995516,1.4779189002858912
0.45125000000000004,1.4817278277995516,1.4779189002858912
0.4515,1.4817278277995516,1.4779189002858912
0.45175,1.4817278277995516,1.4779189002858912
0.45199999999999996,1.4820665055216524,1.4779189002858912
0.45225000000000004,1.4820665055216524,1.4779189002858912
0.4525,1.4820665055216524,1.4782515714949065
0.45275,1.4820665055216524,1.4782515714949065
0.45299999999999996,1.4820665055216524,1.4782515714949065
0.45325000000000004,1.4820665055216524,1.4779189002858912
0.4535,1.4817278277995516,1.4782515714949065
0.45375,1.4820665055216524,1.4782515714949065
0.45399999999999996,1.4817278277995516,1.4782515714949065
0.45425000000000004,1.4817278277995516,1.4782515714949065
0.4545,1.4817278277995516,1.4782515714949065
0.45475,1.4817278277995516,1.4782515714949065
0.45499999999999996,1.4813891500774508,1.4779189002858912
0.45525000000000004,1.4813891500774508,1.4779189002858912
0.4555,1.4813891500774508,1.4782515714949065
0.45575,1.48105047235535,1.4779189002858912
0.45599999999999996,1.48105047235535,1.4779189002858912
0.45625000000000004,1.480711794633249,1.477586229076876
0.4565,1.480711794633249,1.477586229076876
0.45675,1.480711794633249,1.477586229076876
0.45699999999999996,1.4803731169111483,1.477586229076876
0.45725000000000005,1.480711794633249,1.477586229076876
0.4575,1.4803731169111483,1.4772535578678607
0.45775,1.4803731169111483,1.4772535578678607
0.45799999999999996,1.4803731169111483,1.4772535578678607
0.45825000000000005,1.4800344391890474,1.4772535578678607
0.4585,1.4796957614669466,1.4769208866588455
0.45875,1.4796957614669466,1.4769208866588455
0.45899999999999996,1.4793570837448458,1.4769208866588455
0.45925000000000005,1.4793570837448458,1.4769208866588455
0.4595,1.479018406022745,1.4765882154498302
0.45975,1.479018406022745,1.4765882154498302
0.45999999999999996,1.4793570837448458,1.4765882154498302
0.46025000000000005,1.479018406022745,1.476255544240815
0.4605,1.4793570837448458,1.476255544240815
0.46075,1.479018406022745,1.476255544240815
0.46099999999999997,1.478679728300644,1.476255544240815
0.46125000000000005,1.479018406022745,1.4759228730318
0.4615,1.478679728300644,1.4759228730318
0.46175,1.4783410505785433,1.4755902018227847
0.46199999999999997,1.4780023728564424,1.4755902018227847
0.46225000000000005,1.4776636951343416,1.4755902018227847
0.4625,1.4773250174122408,1.4752575306137694
0.46275,1.4773250174122408,1.4755902018227847
0.46299999999999997,1.4773250174122408,1.4755902018227847
0.46325000000000005,1.4776636951343416,1.4755902018227847
0.4635,1.4776636951343416,1.4755902018227847
0.46375,1.4780023728564424,1.4755902018227847
0.46399999999999997,1.4783410505785433,1.4759228730318
0.46425000000000005,1.4780023728564424,1.4759228730318
0.4645,1.4783410505785433,1.4759228730318
0.46475,1.4783410505785433,1.4759228730318
0.46499999999999997,1.4783410505785433,1.4759228730318
0.46525000000000005,1.4783410505785433,1.476255544240815
0.4655,1.4783410505785433,1.476255544240815
0.46575,1.4783410505785433,1.476255544240815
0.46599999999999997,1.478679728300644,1.476255544240815
0.46625000000000005,1.478679728300644,1.4765882154498302
0.4665,1.479018406022745,1.4765882154498302
0.46675,1.479018406022745,1.4765882154498302
0.46699999999999997,1.4793570837448458,1.4769208866588455
0.46725000000000005,1.4793570837448458,1.4769208866588455
0.4675,1.4796957614669466,1.4769208866588455
0.46775,1.4796957614669466,1.4769208866588455
0.46799999999999997,1.4796957614669466,1.4769208866588455
0.46825000000000006,1.4800344391890474,1.4769208866588455
0.4685,1.4800344391890474,1.4769208866588455
0.46875,1.4800344391890474,1.4772535578678607
0.469,1.4803731169111483,1.4772535578678607
0.46924999999999994,1.4803731169111483,1.4772535578678607
0.46950000000000003,1.4803731169111483,1.4772535578678607
0.46975,1.4803731169111483,1.4772535578678607
0.47,1.480711794633249,1.4772535578678607
0.47024999999999995,1.480711794633249,1.477586229076876
0.47050000000000003,1.48105047235535,1.477586229076876
0.47075,1.48105047235535,1.477586229076876
0.471,1.48105047235535,1.477586229076876
0.47124999999999995,1.48105047235535,1.4779189002858912
0.47150000000000003,1.4813891500774508,1.4779189002858912
0.47175,1.4813891500774508,1.4779189002858912
0.472,1.4813891500774508,1.4779189002858912
0.47224999999999995,1.4813891500774508,1.4779189002858912
0.47250000000000003,1.4813891500774508,1.4779189002858912
0.47275,1.4813891500774508,1.4779189002858912
0.473,1.4813891500774508,1.4782515714949065
0.47324999999999995,1.4817278277995516,1.4779189002858912
0.47350000000000003,1.4813891500774508,1.4779189002858912
0.47375,1.4813891500774508,1.4779189002858912
0.474,1.4813891500774508,1.4782515714949065
0.47424999999999995,1.4813891500774508,1.4779189002858912
0.47450000000000003,1.4813891500774508,1.4779189002858912
0.47475,1.48105047235535,1.4779189002858912
0.475,1.48105047235535,1.4779189002858912
0.47524999999999995,1.48105047235535,1.4779189002858912
0.47550000000000003,1.48105047235535,1.477586229076876
0.47575,1.480711794633249,1.477586229076876
0.476,1.4803731169111483,1.477586229076876
0.47624999999999995,1.480711794633249,1.477586229076876
0.47650000000000003,1.4803731169111483,1.4772535578678607
0.47675,1.4800344391890474,1.4772535578678607
0.477,1.4800344391890474,1.4772535578678607
0.47724999999999995,1.4800344391890474,1.4769208866588455
0.47750000000000004,1.4800344391890474,1.4769208866588455
0.47775,1.4800344391890474,1.4769208866588455
0.478,1.4800344391890474,1.4769208866588455
0.47824999999999995,1.4800344391890474,1.4769208866588455
0.47850000000000004,1.4800344391890474,1.4765882154498302
0.47875,1.4796957614669466,1.4765882154498302
0.479,1.4796957614669466,1.4765882154498302
0.47924999999999995,1.4796957614669466,1.4765882154498302
0.47950000000000004,1.4793570837448458,1.476255544240815
0.47975,1.4793570837448458,1.476255544240815
0.48,1.4793570837448458,1.476255544240815
0.48024999999999995,1.4793570837448458,1.476255544240815
0.48050000000000004,1.479018406022745,1.4759228730318
0.48075,1.479018406022745,1.476255544240815
0.481,1.4793570837448458,1.4759228730318
0.48124999999999996,1.479018406022745,1.4759228730318
0.48150000000000004,1.478679728300644,1.4755902018227847
0.48175,1.478679728300644,1.4755902018227847
0.482,1.4783410505785433,1.4755902018227847
0.48224999999999996,1.4783410505785433,1.4755902018227847
0.48250000000000004,1.478679728300644,1.4755902018227847
0.48275,1.478679728300644,1.4755902018227847
0.483,1.4783410505785433,1.4752575306137694
0.48324999999999996,1.4783410505785433,1.4755902018227847
0.48350000000000004,1.4783410505785433,1.4755902018227847
0.48375,1.4783410505785433,1.4755902018227847
0.484,1.4783410505785433,1.4752575306137694
0.48424999999999996,1.478679728300644,1.4755902018227847
0.48450000000000004,1.478679728300644,1.4755902018227847
0.48475,1.478679728300644,1.4755902018227847
0.485,1.479018406022745,1.4755902018227847
0.48524999999999996,1.479018406022745,1.4755902018227847
0.48550000000000004,1.478679728300644,1.4755902018227847
0.48575,1.479018406022745,1.4759228730318
0.486,1.479018406022745,1.4759228730318
0.48624999999999996,1.4793570837448458,1.4759228730318
0.48650000000000004,1.4793570837448458,1.4759228730318
0.48675,1.4796957614669466,1.476255544240815
0.487,1.4796957614669466,1.4759228730318
0.48724999999999996,1.4800344391890474,1.4759228730318
0.48750000000000004,1.4800344391890474,1.476255544240815
0.48775,1.4803731169111483,1.476255544240815
0.488,1.4803731169111483,1.476255544240815
0.48824999999999996,1.4803731169111483,1.476255544240815
0.48850000000000005,1.480711794633249,1.4765882154498302
0.48875,1.480711794633249,1.476255544240815
0.489,1.48105047235535,1.4765882154498302
0.48924999999999996,1.4813891500774508,1.4765882154498302
0.48950000000000005,1.4813891500774508,1.4765882154498302
0.48975,1.4813891500774508,1.4769208866588455
0.49,1.4817278277995516,1.4769208866588455
0.49024999999999996,1.4820665055216524,1.4769208866588455
0.49050000000000005,1.4820665055216524,1.4769208866588455
0.49075,1.4824051832437533,1.4772535578678607
0.491,1.4824051832437533,1.4769208866588455
0.49124999999999996,1.4824051832437533,1.4772535578678607
0.49150000000000005,1.482743860965854,1.4772535578678607
0.49175,1.483082538687955,1.4772535578678607
0.492,1.483082538687955,1.4772535578678607
0.49224999999999997,1.482743860965854,1.4772535578678607
0.49250000000000005,1.482743860965854,1.4772535578678607
0.49275,1.482743860965854,1.4772535578678607
0.493,1.482743860965854,1.4769208866588455
0.49324999999999997,1.4824051832437533,1.4772535578678607
0.49350000000000005,1.482743860965854,1.4769208866588455
0.49375,1.482743860965854,1.4772535578678607
0.494,1.482743860965854,1.4772535578678607
0.49424999999999997,1.482743860965854,1.4772535578678607
0.49450000000000005,1.482743860965854,1.4769208866588455
0.49475,1.482743860965854,1.4769208866588455
0.495,1.482743860965854,1.4769208866588455
0.49524999999999997,1.482743860965854,1.4769208866588455
0.49550000000000005,1.4824051832437533,1.4765882154498302
0.49575,1.4824051832437533,1.4769208866588455
0.496,1.4820665055216524,1.4765882154498302
0.49624999999999997,1.4817278277995516,1.476255544240815
0.49650000000000005,1.4817278277995516,1.476255544240815
0.49675,1.4813891500774508,1.476255544240815
0.497,1.4813891500774508,1.476255544240815
0.49724999999999997,1.4813891500774508,1.4759228730318
0.49750000000000005,1.48105047235535,1.4759228730318
0.49775,1.480711794633249,1.4755902018227847
0.498,1.480711794633249,1.4755902018227847
0.49824999999999997,1.4803731169111483,1.4755902018227847
0.49850000000000005,1.4803731169111483,1.4755902018227847
0.49875,1.4800344391890474,1.4752575306137694
0.499,1.4800344391890474,1.4752575306137694
0.49924999999999997,1.4796957614669466,1.4752575306137694
0.49950000000000006,1.4796957614669466,1.4752575306137694
0.49975,1.4796957614669466,1.4752575306137694
0.5,1.4793570837448458,1.4749248594047542
0.50025,1.479018406022745,1.474592188195739
0.5005,1.479018406022745,1.474592188195739
0.50075,1.478679728300644,1.474592188195739
0.501,1.4783410505785433,1.474592188195739
0.50125,1.4783410505785433,1.474592188195739
0.5015000000000001,1.4783410505785433,1.4742595169867236
0.5017499999999999,1.4783410505785433,1.474592188195739
0.502,1.4783410505785433,1.4742595169867236
0.50225,1.4783410505785433,1.4742595169867236
0.5025,1.4783410505785433,1.4742595169867236
0.50275,1.4783410505785433,1.4742595169867236
0.503,1.4783410505785433,1.4742595169867236
0.50325,1.4783410505785433,1.4742595169867236
0.5035000000000001,1.4783410505785433,1.474592188195739
0.5037499999999999,1.478679728300644,1.4742595169867236
0.504,1.478679728300644,1.4742595169867236
0.50425,1.478679728300644,1.4742595169867236
0.5045,1.479018406022745,1.474592188195739
0.50475,1.4793570837448458,1.474592188195739
0.505,1.479018406022745,1.474592188195739
0.50525,1.4793570837448458,1.474592188195739
0.5055000000000001,1.4793570837448458,1.474592188195739
0.5057499999999999,1.4796957614669466,1.474592188195739
0.506,1.4800344391890474,1.474592188195739
0.50625,1.4803731169111483,1.4749248594047542
0.5065,1.4803731169111483,1.4749248594047542
0.50675,1.4803731169111483,1.4749248594047542
0.507,1.480711794633249,1.4749248594047542
0.50725,1.480711794633249,1.4752575306137694
0.5075000000000001,1.480711794633249,1.4752575306137694
0.5077499999999999,1.48105047235535,1.4752575306137694
0.508,1.4813891500774508,1.4755902018227847
0.50825,1.4813891500774508,1.4752575306137694
0.5085,1.4813891500774508,1.4755902018227847
0.50875,1.4817278277995516,1.4755902018227847
0.509,1.4817278277995516,1.4759228730318
0.50925,1.4820665055216524,1.4759228730318
0.5095000000000001,1.4820665055216524,1.4759228730318
0.5097499999999999,1.4820665055216524,1.4759228730318
0.51,1.4824051832437533,1.4759228730318
0.51025,1.482743860965854,1.4759228730318
0.5105,1.482743860965854,1.476255544240815
0.51075,1.482743860965854,1.476255544240815
0.511,1.482743860965854,1.476255544240815
0.51125,1.482743860965854,1.476255544240815
0.5115000000000001,1.482743860965854,1.476255544240815
0.5117499999999999,1.482743860965854,1.476255544240815
0.512,1.482743860965854,1.476255544240815
0.51225,1.482743860965854,1.4765882154498302
0.5125,1.482743860965854,1.4765882154498302
0.51275,1.482743860965854,1.4765882154498302
0.513,1.482743860965854,1.4765882154498302
0.51325,1.483082538687955,1.4765882154498302
0.5135000000000001,1.482743860965854,1.4765882154498302
0.5137499999999999,1.482743860965854,1.476255544240815
0.514,1.482743860965854,1.4765882154498302
0.51425,1.4824051832437533,1.4765882154498302
0.5145,1.482743860965854,1.4765882154498302
0.51475,1.4824051832437533,1.4765882154498302
0.515,1.4824051832437533,1.4765882154498302
0.51525,1.4824051832437533,1.476255544240815
0.5155000000000001,1.4824051832437533,1.476255544240815
0.5157499999999999,1.4820665055216524,1.476255544240815
0.516,1.4817278277995516,1.476255544240815
0.51625,1.4817278277995516,1.4759228730318
0.5165,1.4817278277995516,1.4759228730318
0.51675,1.4817278277995516,1.4759228730318
0.517,1.4813891500774508,1.4759228730318
0.51725,1.4813891500774508,1.4755902018227847
0.5175000000000001,1.4813891500774508,1.4755902018227847
0.5177499999999999,1.4813891500774508,1.4755902018227847
0.518,1.48105047235535,1.4755902018227847
0.51825,1.480711794633249,1.4752575306137694
0.5185,1.480711794633249,1.4752575306137694
0.51875,1.480711794633249,1.4752575306137694
0.519,1.4803731169111483,1.4749248594047542
0.51925,1.4800344391890474,1.4749248594047542
0.5195000000000001,1.4800344391890474,1.4749248594047542
0.5197499999999999,1.4800344391890474,1.4749248594047542
0.52,1.4800344391890474,1.4749248594047542
0.52025,1.4796957614669466,1.474592188195739
0.5205,1.4793570837448458,1.474592188195739
0.52075,1.4793570837448458,1.474592188195739
0.521,1.479018406022745,1.474592188195739
0.52125,1.4793570837448458,1.4742595169867236
0.5215000000000001,1.479018406022745,1.4742595169867236
0.5217499999999999,1.479018406022745,1.4742595169867236
0.522,1.479018406022745,1.4742595169867236
0.52225,1.478679728300644,1.4742595169867236
0.5225,1.478679728300644,1.4742595169867236
0.52275,1.478679728300644,1.4742595169867236
0.523,1.478679728300644,1.4742595169867236
0.52325,1.4783410505785433,1.4742595169867236
0.5235000000000001,1.478679728300644,1.4742595169867236
0.5237499999999999,1.478679728300644,1.4742595169867236
0.524,1.478679728300644,1.4742595169867236
0.52425,1.478679728300644,1.4742595169867236
0.5245,1.478679728300644,1.474592188195739
0.52475,1.479018406022745,1.474592188195739
0.525,1.479018406022745,1.474592188195739
0.52525,1.479018406022745,1.474592188195739
0.5255000000000001,1.479018406022745,1.474592188195739
0.5257499999999999,1.4793570837448458,1.4749248594047542
0.526,1.4793570837448458,1.4749248594047542
0.52625,1.4796957614669466,1.4749248594047542
0.5265,1.4800344391890474,1.4752575306137694
0.52675,1.4800344391890474,1.4749248594047542
0.527,1.4803731169111483,1.4749248594047542
0.52725,1.4803731169111483,1.4752575306137694
0.5275000000000001,1.480711794633249,1.4752575306137694
0.5277499999999999,1.48105047235535,1.4752575306137694
0.528,1.4813891500774508,1.4752575306137694
0.52825,1.4813891500774508,1.4755902018227847
0.5285,1.4817278277995516,1.4755902018227847
0.52875,1.4813891500774508,1.4755902018227847
0.529,1.4817278277995516,1.4755902018227847
0.52925,1.4817278277995516,1.4759228730318
0.5295000000000001,1.4820665055216524,1.4755902018227847
0.5297499999999999,1.4824051832437533,1.4755902018227847
0.53,1.4824051832437533,1.4755902018227847
0.53025,1.482743860965854,1.4759228730318
0.5305,1.482743860965854,1.4759228730318
0.53075,1.483082538687955,1.4759228730318
0.531,1.483082538687955,1.476255544240815
0.53125,1.4834212164100558,1.476255544240815
0.5315,1.4834212164100558,1.4759228730318
0.53175,1.4834212164100558,1.476255544240815
0.532,1.4834212164100558,1.476255544240815
0.53225,1.4834212164100558,1.476255544240815
0.5325,1.4834212164100558,1.476255544240815
0.5327500000000001,1.4834212164100558,1.476255544240815
0.5329999999999999,1.4834212164100558,1.4765882154498302
0.53325,1.4837598941321566,1.4765882154498302
0.5335,1.4834212164100558,1.476255544240815
0.53375,1.4834212164100558,1.476255544240815
0.534,1.4834212164100558,1.476255544240815
0.53425,1.4834212164100558,1.476255544240815
0.5345,1.4834212164100558,1.476255544240815
0.5347500000000001,1.4834212164100558,1.476255544240815
0.5349999999999999,1.4834212164100558,1.476255544240815
0.53525,1.4834212164100558,1.476255544240815
0.5355,1.4834212164100558,1.476255544240815
0.53575,1.4834212164100558,1.4759228730318
0.536,1.4834212164100558,1.4759228730318
0.53625,1.4834212164100558,1.4755902018227847
0.5365,1.4834212164100558,1.4755902018227847
0.5367500000000001,1.4837598941321566,1.4755902018227847
0.5369999999999999,1.4837598941321566,1.4755902018227847
0.53725,1.4834212164100558,1.4755902018227847
0.5375,1.483082538687955,1.4755902018227847
0.53775,1.483082538687955,1.4755902018227847
0.538,1.482743860965854,1.4752575306137694
0.53825,1.4824051832437533,1.4752575306137694
0.5385,1.4820665055216524,1.4752575306137694
0.5387500000000001,1.4813891500774508,1.4749248594047542
0.5389999999999999,1.48105047235535,1.4749248594047542
0.53925,1.480711794633249,1.474592188195739
0.5395,1.4803731169111483,1.474592188195739
0.53975,1.4800344391890474,1.474592188195739
0.54,1.4800344391890474,1.4742595169867236
0.54025,1.4796957614669466,1.4742595169867236
0.5405,1.4796957614669466,1.4742595169867236
0.5407500000000001,1.4793570837448458,1.4742595169867236
0.5409999999999999,1.478679728300644,1.4742595169867236
0.54125,1.478679728300644,1.4739268457777084
0.5415,1.478679728300644,1.4739268457777084
0.54175,1.4783410505785433,1.4739268457777084
0.542,1.4783410505785433,1.4739268457777084
0.54225,1.4780023728564424,1.4739268457777084
0.5425,1.4780023728564424,1.4739268457777084
0.5427500000000001,1.4780023728564424,1.4739268457777084
0.5429999999999999,1.4776636951343416,1.4739268457777084
0.54325,1.4776636951343416,1.4739268457777084
0.5435,1.4776636951343416,1.4739268457777084
0.54375,1.4776636951343416,1.4739268457777084
0.544,1.4773250174122408,1.4739268457777084
0.54425,1.4776636951343416,1.4739268457777084
0.5445,1.4776636951343416,1.4739268457777084
0.5447500000000001,1.4776636951343416,1.4739268457777084
0.5449999999999999,1.4776636951343416,1.4739268457777084
0.54525,1.4780023728564424,1.4742595169867236
0.5455,1.4780023728564424,1.4742595169867236
0.54575,1.4780023728564424,1.4742595169867236
0.546,1.4780023728564424,1.4742595169867236
0.54625,1.4783410505785433,1.4742595169867236
0.5465,1.4783410505785433,1.474592188195739
0.5467500000000001,1.4783410505785433,1.4742595169867236
0.5469999999999999,1.4783410505785433,1.474592188195739
0.54725,1.4783410505785433,1.4742595169867236
0.5475,1.4783410505785433,1.474592188195739
0.54775,1.4780023728564424,1.4742595169867236
0.548,1.4776636951343416,1.474592188195739
0.54825,1.4776636951343416,1.474592188195739
0.5485,1.4780023728564424,1.474592188195739
0.5487500000000001,1.478679728300644,1.474592188195739
0.5489999999999999,1.479018406022745,1.4749248594047542
0.54925,1.4796957614669466,1.4752575306137694
0.5495,1.4800344391890474,1.4752575306137694
0.54975,1.4800344391890474,1.4752575306137694
0.55,1.4803731169111483,1.4755902018227847
0.55025,1.480711794633249,1.4755902018227847
0.5505,1.48105047235535,1.4755902018227847
0.5507500000000001,1.48105047235535,1.4755902018227847
0.5509999999999999,1.48105047235535,1.4755902018227847
0.55125,1.48105047235535,1.4759228730318
0.5515,1.4813891500774508,1.4759228730318
0.55175,1.4813891500774508,1.4759228730318
0.552,1.4813891500774508,1.4759228730318
0.55225,1.48105047235535,1.476255544240815
0.5525,1.48105047235535,1.476255544240815
0.5527500000000001,1.4813891500774508,1.476255544240815
0.5529999999999999,1.4813891500774508,1.476255544240815
0.55325,1.4813891500774508,1.476255544240815
0.5535,1.4813891500774508,1.4759228730318
0.55375,1.4817278277995516,1.476255544240815
0.554,1.4813891500774508,1.476255544240815
0.55425,1.4813891500774508,1.476255544240815
0.5545,1.4813891500774508,1.4759228730318
0.5547500000000001,1.4813891500774508,1.4759228730318
0.5549999999999999,1.4813891500774508,1.4759228730318
0.55525,1.4813891500774508,1.4759228730318
0.5555,1.48105047235535,1.4759228730318
0.55575,1.48105047235535,1.4759228730318
0.556,1.480711794633249,1.4759228730318
0.55625,1.480711794633249,1.4759228730318
0.5565,1.480711794633249,1.4759228730318
0.5567500000000001,1.4803731169111483,1.4755902018227847
0.5569999999999999,1.4803731169111483,1.4755902018227847
0.55725,1.4800344391890474,1.4755902018227847
0.5575,1.4800344391890474,1.4752575306137694
0.55775,1.4800344391890474,1.4752575306137694
0.558,1.4800344391890474,1.4752575306137694
0.55825,1.4796957614669466,1.4752575306137694
0.5585,1.4793570837448458,1.4749248594047542
0.5587500000000001,1.4793570837448458,1.4749248594047542
0.5589999999999999,1.4793570837448458,1.4749248594047542
0.55925,1.4793570837448458,1.4749248594047542
0.5595,1.4793570837448458,1.4749248594047542
0.55975,1.479018406022745,1.474592188195739
0.56,1.479018406022745,1.474592188195739
0.56025,1.478679728300644,1.474592188195739
0.5605,1.478679728300644,1.474592188195739
0.5607500000000001,1.478679728300644,1.474592188195739
0.5609999999999999,1.478679728300644,1.4742595169867236
0.56125,1.4783410505785433,1.4742595169867236
0.5615,1.4783410505785433,1.4739268457777084
0.56175,1.4783410505785433,1.4739268457777084
0.562,1.4783410505785433,1.4739268457777084
0.56225,1.4783410505785433,1.4742595169867236
0.5625,1.4780023728564424,1.4739268457777084
0.56275,1.4780023728564424,1.4739268457777084
0.563,1.4780023728564424,1.4739268457777084
0.56325,1.4780023728564424,1.4739268457777084
0.5635,1.4780023728564424,1.4739268457777084
0.56375,1.4783410505785433,1.4739268457777084
0.5640000000000001,1.4783410505785433,1.4739268457777084
0.5642499999999999,1.4783410505785433,1.4739268457777084
0.5645,1.4783410505785433,1.4739268457777084
0.56475,1.4783410505785433,1.4739268457777084
0.565,1.4783410505785433,1.4742595169867236
0.56525,1.478679728300644,1.4742595169867236
0.5655,1.478679728300644,1.4742595169867236
0.56575,1.4783410505785433,1.474592188195739
0.5660000000000001,1.4783410505785433,1.474592188195739
0.5662499999999999,1.4783410505785433,1.474592188195739
0.5665,1.478679728300644,1.474592188195739
0.56675,1.478679728300644,1.474592188195739
0.567,1.478679728300644,1.4749248594047542
0.56725,1.478679728300644,1.4749248594047542
0.5675,1.478679728300644,1.4749248594047542
0.56775,1.478679728300644,1.4752575306137694
0.5680000000000001,1.478679728300644,1.4755902018227847
0.5682499999999999,1.478679728300644,1.4752575306137694
0.5685,1.479018406022745,1.4755902018227847
0.56875,1.479018406022745,1.4755902018227847
0.569,1.4793570837448458,1.4755902018227847
0.56925,1.4793570837448458,1.4755902018227847
0.5695,1.4796957614669466,1.4755902018227847
0.56975,1.4796957614669466,1.4755902018227847
0.5700000000000001,1.4800344391890474,1.4759228730318
0.5702499999999999,1.4800344391890474,1.476255544240815
0.5705,1.4803731169111483,1.476255544240815
0.57075,1.480711794633249,1.476255544240815
0.571,1.4803731169111483,1.476255544240815
