#Digilent WaveForms Oscilloscope Acquisition
#Device Name: Discovery2
#Serial Number: SN:210321A35B9C
#Date Time: 2022-07-23 17:46:24.457
#Sample rate: 1600Hz
#Samples: 8000
#Trigger: Source: Channel 1 Type: Edge Condition: Rising Level: 1.47 V Hyst.: Auto HoldOff: 100 ns
#Channel 1: Range: 20 mV/div Offset: -1.5 V Attenuation: 1 X Sample Mode: Average
#Channel 2: Range: 20 mV/div Offset: -1.5 V Attenuation: 1 X Sample Mode: Average

Time (s),Channel 1 (V),Channel 2 (V)
0.7406250000000001,1.4767368949297741,1.4689367776424798
0.74125,1.4767368949297741,1.4689367776424798
0.7418750000000003,1.4767368949297741,1.46893677764248
0.7425000000000002,1.4767368949297741,1.469269448851495
0.743125,1.477075572651875,1.469269448851495
0.7437499999999999,1.477075572651875,1.469269448851495
0.7443750000000002,1.4774142503739758,1.4689367776424798
0.7450000000000001,1.4777529280960766,1.469269448851495
0.745625,1.4784302835402783,1.4689367776424798
0.7462500000000003,1.4787689612623791,1.4689367776424798
0.7468750000000002,1.4787689612623791,1.4689367776424798
0.7475,1.4794463167065806,1.4689367776424798
0.7481249999999999,1.4797849944286812,1.4686041064334647
0.7487500000000002,1.4801236721507824,1.4686041064334645
0.7493750000000001,1.480462349872883,1.4686041064334645
0.75,1.480462349872883,1.4686041064334645
0.7506249999999999,1.4808010275949837,1.4686041064334645
0.7512500000000002,1.4808010275949839,1.4686041064334645
0.7518750000000001,1.4808010275949839,1.4689367776424798
0.7525,1.4808010275949839,1.4689367776424798
0.7531250000000003,1.4804623498728828,1.4689367776424798
0.7537500000000001,1.4801236721507822,1.4689367776424798
0.754375,1.4797849944286814,1.4689367776424798
0.7549999999999999,1.4791076389844802,1.4692694488514948
0.7556250000000002,1.4787689612623791,1.469269448851495
0.7562500000000001,1.4784302835402783,1.469269448851495
0.756875,1.4777529280960766,1.469269448851495
0.7575000000000003,1.4774142503739756,1.4692694488514952
0.7581250000000002,1.4767368949297741,1.4696021200605103
0.75875,1.4763982172076733,1.469269448851495
0.7593749999999999,1.4763982172076733,1.46960212006051
0.7600000000000002,1.4760595394855724,1.469269448851495
0.7606250000000001,1.4757208617634716,1.469269448851495
0.76125,1.4757208617634716,1.4696021200605103
0.7618750000000003,1.4757208617634718,1.46960212006051
0.7625000000000002,1.4760595394855724,1.469269448851495
0.763125,1.4763982172076733,1.469269448851495
0.7637499999999999,1.476736894929774,1.469269448851495
0.7643750000000002,1.4770755726518752,1.4689367776424798
0.7650000000000001,1.4774142503739758,1.4689367776424798
0.765625,1.4780916058181774,1.4689367776424798
0.7662499999999999,1.478430283540278,1.4689367776424798
0.7668750000000002,1.47910763898448,1.4689367776424798
0.7675000000000001,1.4794463167065806,1.4686041064334645
0.768125,1.4801236721507822,1.4686041064334645
0.7687500000000003,1.4804623498728833,1.4686041064334645
0.7693750000000001,1.4808010275949839,1.4686041064334645
0.77,1.4811397053170847,1.4686041064334645
0.7706249999999999,1.4814783830391853,1.4686041064334645
0.7712500000000002,1.4814783830391856,1.4686041064334645
0.7718750000000001,1.4814783830391856,1.4686041064334645
0.7725,1.4814783830391856,1.4686041064334645
0.7731250000000003,1.4811397053170845,1.4686041064334645
0.7737500000000002,1.4808010275949839,1.4686041064334645
0.774375,1.4801236721507822,1.4686041064334645
0.7749999999999999,1.4797849944286816,1.4686041064334645
0.7756250000000002,1.4794463167065806,1.4689367776424798
0.7762500000000001,1.47910763898448,1.4689367776424798
0.776875,1.4787689612623791,1.469269448851495
0.7775000000000003,1.478430283540278,1.469269448851495
0.7781250000000002,1.4777529280960766,1.469269448851495
0.77875,1.4774142503739758,1.469269448851495
0.7793749999999999,1.4770755726518752,1.469269448851495
0.7800000000000002,1.4770755726518747,1.4696021200605103
0.7806250000000001,1.4767368949297741,1.4696021200605103
0.78125,1.4767368949297741,1.4696021200605103
0.7818749999999999,1.4767368949297741,1.4696021200605103
0.7825000000000002,1.477075572651875,1.4696021200605103
0.7831250000000001,1.477075572651875,1.4696021200605103
0.78375,1.4774142503739758,1.4696021200605103
0.7843750000000003,1.4777529280960768,1.4692694488514952
0.7850000000000001,1.4784302835402783,1.4696021200605103
0.785625,1.4787689612623791,1.469269448851495
0.7862499999999999,1.4794463167065803,1.469269448851495
0.7868750000000002,1.4801236721507822,1.469269448851495
0.7875000000000001,1.480462349872883,1.4689367776424798
0.788125,1.4808010275949839,1.4689367776424798
0.7887500000000003,1.481139705317085,1.4689367776424795
0.7893750000000002,1.4814783830391856,1.4686041064334645
0.79,1.4814783830391856,1.4686041064334645
0.7906249999999999,1.4818170607612862,1.4686041064334645
0.7912500000000002,1.4818170607612864,1.4686041064334645
0.7918750000000001,1.4818170607612864,1.4686041064334645
0.7925,1.4814783830391856,1.4686041064334645
0.7931250000000003,1.4814783830391853,1.4686041064334645
0.7937500000000002,1.4811397053170847,1.4686041064334645
0.794375,1.4808010275949839,1.4686041064334645
0.7949999999999999,1.4804623498728833,1.4686041064334645
0.7956250000000002,1.4797849944286812,1.4689367776424798
0.7962500000000001,1.4794463167065806,1.4689367776424798
0.796875,1.4787689612623791,1.469269448851495
0.7974999999999999,1.4787689612623791,1.469269448851495
0.7981250000000002,1.4780916058181774,1.469269448851495
0.7987500000000001,1.4774142503739758,1.469269448851495
0.799375,1.4774142503739758,1.469269448851495
0.8000000000000003,1.4770755726518747,1.469269448851495
0.8006250000000001,1.4767368949297741,1.469269448851495
0.80125,1.4767368949297741,1.4696021200605103
0.8018749999999999,1.4767368949297741,1.4696021200605103
0.8025000000000002,1.477075572651875,1.4696021200605103
0.8031250000000001,1.4774142503739758,1.469269448851495
0.80375,1.4780916058181774,1.469269448851495
0.8043750000000003,1.4784302835402785,1.4692694488514948
0.8050000000000002,1.4787689612623791,1.4689367776424798
0.805625,1.4794463167065806,1.4689367776424798
0.8062499999999999,1.4797849944286812,1.4689367776424798
0.8068750000000002,1.480462349872883,1.4689367776424798
0.8075000000000001,1.480462349872883,1.4686041064334645
0.808125,1.4811397053170847,1.4686041064334645
0.8087500000000003,1.4814783830391856,1.4682714352244493
0.8093750000000002,1.4814783830391856,1.4682714352244493
0.81,1.4814783830391856,1.4682714352244493
0.8106249999999999,1.4818170607612862,1.4679387640154342
0.8112500000000002,1.4814783830391856,1.4682714352244493
0.8118750000000001,1.4814783830391856,1.4682714352244493
0.8125,1.4814783830391856,1.4682714352244493
0.8131249999999999,1.4814783830391856,1.4682714352244493
0.8137500000000002,1.4811397053170847,1.4682714352244493
0.8143750000000001,1.480462349872883,1.4682714352244493
0.815,1.4801236721507822,1.4686041064334645
0.8156250000000003,1.4794463167065803,1.4686041064334647
0.8162500000000001,1.4787689612623791,1.4689367776424798
0.816875,1.4780916058181774,1.4689367776424798
0.8174999999999999,1.477414250373976,1.4689367776424798
0.8181250000000002,1.477075572651875,1.469269448851495
0.8187500000000001,1.4767368949297741,1.469269448851495
0.819375,1.4760595394855724,1.469269448851495
0.8200000000000003,1.4760595394855722,1.4692694488514952
0.8206250000000002,1.4753821840413708,1.4696021200605103
0.82125,1.47504350631927,1.4696021200605103
0.8218749999999999,1.47504350631927,1.4696021200605103
0.8225000000000002,1.4753821840413708,1.4696021200605103
0.8231250000000001,1.4753821840413708,1.4696021200605103
0.82375,1.4757208617634716,1.4696021200605103
0.8243750000000003,1.4763982172076735,1.469269448851495
0.8250000000000002,1.4767368949297741,1.469269448851495
0.825625,1.477075572651875,1.469269448851495
0.8262499999999999,1.4777529280960764,1.46893677764248
0.8268750000000002,1.4784302835402787,1.4689367776424795
0.8275000000000001,1.4794463167065806,1.4686041064334645
0.828125,1.4797849944286814,1.4686041064334645
0.8287499999999999,1.480123672150782,1.4686041064334645
0.8293750000000002,1.4808010275949839,1.4686041064334645
0.8300000000000001,1.4808010275949839,1.4682714352244493
0.830625,1.4808010275949839,1.4682714352244493
0.8312500000000003,1.4808010275949839,1.4682714352244493
0.8318750000000001,1.4808010275949839,1.4682714352244493
0.8325,1.4808010275949839,1.4682714352244493
0.8331249999999999,1.4808010275949839,1.4682714352244493
0.8337500000000002,1.480462349872883,1.4682714352244493
0.8343750000000001,1.4801236721507822,1.4682714352244493
0.835,1.4797849944286814,1.4682714352244493
0.8356250000000003,1.4794463167065803,1.4686041064334647
0.8362500000000002,1.47910763898448,1.4689367776424798
0.836875,1.4787689612623791,1.4689367776424798
0.8374999999999999,1.4787689612623791,1.4689367776424798
0.8381250000000002,1.4780916058181774,1.4689367776424798
0.8387500000000001,1.4777529280960766,1.4689367776424798
0.839375,1.4774142503739758,1.469269448851495
0.8400000000000003,1.4774142503739758,1.469269448851495
0.8406250000000002,1.4774142503739758,1.469269448851495
0.84125,1.4777529280960766,1.469269448851495
0.8418749999999999,1.4777529280960766,1.469269448851495
0.8425000000000002,1.4780916058181774,1.4692694488514948
0.8431250000000001,1.4780916058181774,1.4689367776424798
0.84375,1.4784302835402783,1.4689367776424798
0.8443749999999999,1.478768961262379,1.4689367776424798
0.8450000000000002,1.4794463167065806,1.4689367776424798
0.8456250000000001,1.4797849944286814,1.4686041064334645
0.84625,1.480462349872883,1.4686041064334645
0.8468750000000003,1.480801027594984,1.4686041064334643
0.8475000000000001,1.4811397053170847,1.4682714352244493
0.848125,1.4814783830391856,1.4682714352244493
0.8487499999999999,1.4818170607612862,1.4682714352244493
0.8493750000000002,1.4821557384833872,1.467938764015434
0.8500000000000001,1.4821557384833872,1.467938764015434
0.850625,1.482494416205488,1.467938764015434
0.8512500000000003,1.4824944162054878,1.467938764015434
0.8518750000000002,1.4821557384833872,1.467938764015434
0.8525,1.4821557384833872,1.467938764015434
0.8531249999999999,1.4818170607612866,1.467938764015434
0.8537500000000002,1.4814783830391856,1.467938764015434
0.8543750000000001,1.4811397053170847,1.467938764015434
0.855,1.4808010275949839,1.467938764015434
0.8556250000000003,1.480123672150782,1.4682714352244493
0.8562500000000002,1.4797849944286814,1.4682714352244493
0.856875,1.4794463167065806,1.4686041064334645
0.8574999999999999,1.4787689612623793,1.4686041064334645
0.8581250000000002,1.478768961262379,1.4686041064334645
0.8587500000000001,1.4784302835402783,1.4686041064334645
0.859375,1.4780916058181774,1.4686041064334645
0.8599999999999999,1.4780916058181774,1.4686041064334645
0.8606250000000002,1.4780916058181774,1.4686041064334645
0.8612500000000001,1.4777529280960766,1.4686041064334645
0.861875,1.4780916058181774,1.4686041064334645
0.8625000000000003,1.4780916058181777,1.4686041064334645
0.8631250000000001,1.4784302835402783,1.4686041064334645
0.86375,1.4787689612623791,1.4682714352244493
0.8643749999999999,1.4791076389844797,1.4679387640154342
0.8650000000000002,1.4797849944286814,1.467938764015434
0.8656250000000001,1.4801236721507822,1.467938764015434
0.86625,1.480462349872883,1.4676060928064187
0.8668750000000003,1.480801027594984,1.4676060928064185
0.8675000000000002,1.4814783830391856,1.4672734215974035
0.868125,1.4818170607612864,1.4672734215974035
0.8687499999999999,1.482155738483387,1.4672734215974035
0.8693750000000002,1.482494416205488,1.4672734215974035
0.8700000000000001,1.482494416205488,1.4672734215974035
0.870625,1.4828330939275889,1.4672734215974035
0.8712500000000003,1.4828330939275889,1.4672734215974035
0.8718750000000002,1.4828330939275889,1.4672734215974035
0.8725,1.4828330939275889,1.4672734215974035
0.8731249999999999,1.4824944162054883,1.4672734215974035
0.8737500000000002,1.4818170607612862,1.4676060928064187
0.8743750000000001,1.4814783830391856,1.4676060928064187
0.875,1.4811397053170847,1.4676060928064187
0.8756249999999999,1.480801027594984,1.4676060928064187
0.8762500000000002,1.4801236721507822,1.467938764015434
0.8768750000000001,1.4797849944286814,1.467938764015434
0.8775,1.47910763898448,1.467938764015434
0.8781250000000003,1.4787689612623791,1.468271435224449
0.8787500000000001,1.4787689612623791,1.467938764015434
0.879375,1.4784302835402783,1.467938764015434
0.8799999999999999,1.4780916058181777,1.467938764015434
0.8806250000000002,1.4780916058181774,1.4682714352244493
0.8812500000000001,1.4780916058181774,1.4682714352244493
0.881875,1.4780916058181774,1.467938764015434
0.8825000000000003,1.4780916058181777,1.4682714352244493
0.8831250000000002,1.4784302835402783,1.4682714352244493
0.88375,1.4787689612623791,1.467938764015434
0.8843749999999999,1.4791076389844797,1.467938764015434
0.8850000000000002,1.4797849944286814,1.467938764015434
0.8856250000000001,1.4801236721507822,1.4676060928064187
0.88625,1.4808010275949839,1.4676060928064187
0.8868750000000003,1.481139705317085,1.4676060928064187
0.8875000000000002,1.4814783830391856,1.4676060928064187
0.888125,1.4814783830391856,1.4672734215974035
0.8887499999999999,1.4818170607612862,1.4672734215974035
0.8893750000000002,1.4821557384833872,1.4669407503883882
0.8900000000000001,1.4821557384833872,1.4669407503883882
0.890625,1.4818170607612864,1.466608079179373
0.8912499999999999,1.4818170607612864,1.466608079179373
0.8918750000000002,1.4818170607612864,1.466608079179373
0.8925000000000001,1.4814783830391856,1.466608079179373
0.893125,1.4811397053170847,1.466608079179373
0.8937500000000003,1.4808010275949837,1.466608079179373
0.8943750000000001,1.4801236721507822,1.466608079179373
0.895,1.4794463167065806,1.4662754079703577
0.8956249999999999,1.4791076389844802,1.4666080791793727
0.8962500000000002,1.4787689612623791,1.466608079179373
0.8968750000000001,1.4780916058181774,1.466608079179373
0.8975,1.4777529280960766,1.466608079179373
0.8981250000000003,1.4774142503739758,1.466608079179373
0.8987500000000002,1.4774142503739758,1.466608079179373
0.899375,1.4774142503739758,1.4669407503883882
0.8999999999999999,1.4774142503739758,1.4669407503883882
0.9006250000000002,1.4774142503739758,1.4669407503883882
0.9012500000000001,1.4774142503739758,1.4669407503883882
0.901875,1.4774142503739758,1.4669407503883882
0.9025000000000003,1.477414250373976,1.4669407503883882
0.9031250000000002,1.4777529280960766,1.4669407503883882
0.90375,1.4780916058181774,1.4669407503883882
0.9043749999999999,1.478430283540278,1.4666080791793732
0.9050000000000002,1.4784302835402785,1.466608079179373
0.9056250000000001,1.47910763898448,1.466608079179373
0.90625,1.47910763898448,1.4662754079703577
0.9068749999999999,1.4794463167065803,1.4659427367613427
0.9075000000000002,1.4794463167065806,1.4659427367613425
0.9081250000000001,1.4797849944286814,1.4659427367613425
0.90875,1.4801236721507822,1.4656100655523274
0.9093750000000003,1.4801236721507824,1.4656100655523276
0.9100000000000001,1.480462349872883,1.4659427367613425
0.910625,1.480462349872883,1.4656100655523274
0.9112499999999999,1.4801236721507824,1.4656100655523274
0.9118750000000002,1.4801236721507822,1.4656100655523274
0.9125000000000001,1.4797849944286814,1.4656100655523274
0.913125,1.4794463167065806,1.4656100655523274
0.9137500000000003,1.4791076389844797,1.4656100655523274
0.9143750000000002,1.4787689612623791,1.4656100655523274
0.915,1.4784302835402783,1.4656100655523274
0.9156249999999999,1.4780916058181777,1.4656100655523274
0.9162500000000002,1.4777529280960766,1.4656100655523274
0.9168750000000001,1.4774142503739758,1.4659427367613425
0.9175,1.477075572651875,1.4659427367613425
0.9181250000000003,1.476736894929774,1.4659427367613425
0.9187500000000002,1.4763982172076733,1.4659427367613425
0.919375,1.4763982172076733,1.4659427367613425
0.9199999999999999,1.4763982172076733,1.4662754079703575
0.9206250000000002,1.4760595394855724,1.4662754079703575
0.9212500000000001,1.4760595394855724,1.4659427367613425
0.921875,1.4763982172076733,1.4659427367613425
0.9224999999999999,1.476736894929774,1.4659427367613425
0.9231250000000002,1.477075572651875,1.4662754079703577
0.9237500000000001,1.4774142503739758,1.4662754079703577
0.924375,1.4780916058181774,1.4659427367613425
0.9250000000000003,1.4784302835402785,1.4659427367613425
0.9256250000000001,1.4787689612623791,1.4659427367613425
0.92625,1.47910763898448,1.4656100655523274
0.9268749999999999,1.4797849944286812,1.4652773943433124
0.9275000000000002,1.4801236721507822,1.4656100655523274
0.9281250000000001,1.480462349872883,1.4652773943433122
0.92875,1.4811397053170847,1.4652773943433122
0.9293750000000003,1.4814783830391856,1.465277394343312
0.9300000000000002,1.4814783830391856,1.464944723134297
0.930625,1.4814783830391856,1.464944723134297
0.9312499999999999,1.4814783830391856,1.465277394343312
0.9318750000000002,1.4814783830391856,1.464944723134297
0.9325000000000001,1.4814783830391856,1.464944723134297
0.933125,1.4811397053170847,1.464944723134297
0.9337500000000003,1.4808010275949837,1.4649447231342971
0.9343750000000002,1.480462349872883,1.4652773943433122
0.935,1.4801236721507822,1.4652773943433122
0.9356249999999999,1.4797849944286816,1.4652773943433122
0.9362500000000002,1.4791076389844797,1.4652773943433124
0.9368750000000001,1.4787689612623791,1.4656100655523274
0.9375,1.4784302835402783,1.4656100655523274
0.9381249999999999,1.4777529280960768,1.4656100655523274
0.9387500000000002,1.4774142503739758,1.4659427367613425
0.9393750000000001,1.477075572651875,1.4659427367613425
0.94,1.477075572651875,1.4659427367613425
0.9406250000000003,1.4767368949297741,1.4662754079703577
0.9412500000000001,1.4767368949297741,1.4662754079703577
0.941875,1.4767368949297741,1.4662754079703577
0.9424999999999999,1.4770755726518747,1.4662754079703577
0.9431250000000002,1.4774142503739758,1.4662754079703577
0.9437500000000001,1.4777529280960766,1.4659427367613425
0.944375,1.4780916058181774,1.4659427367613425
0.9450000000000003,1.4784302835402785,1.4659427367613425
0.9456250000000002,1.4787689612623791,1.4659427367613425
0.94625,1.4794463167065806,1.4656100655523274
0.9468749999999999,1.4797849944286812,1.4656100655523274
0.9475000000000002,1.4801236721507822,1.4656100655523274
0.9481250000000001,1.480462349872883,1.4656100655523274
0.94875,1.4808010275949839,1.4656100655523274
0.9493750000000003,1.4811397053170847,1.4656100655523272
0.9500000000000002,1.4811397053170847,1.4652773943433122
0.950625,1.4811397053170847,1.4652773943433122
0.9512499999999999,1.4814783830391853,1.4652773943433122
0.9518750000000002,1.4811397053170847,1.4652773943433122
0.9525000000000001,1.4811397053170847,1.4652773943433122
0.953125,1.4808010275949839,1.4652773943433122
0.9537499999999999,1.4804623498728833,1.4652773943433122
0.9543750000000002,1.4801236721507822,1.4656100655523274
0.9550000000000001,1.4797849944286814,1.4656100655523274
0.955625,1.47910763898448,1.4656100655523274
0.9562500000000003,1.478768961262379,1.4656100655523276
0.9568750000000001,1.4780916058181774,1.4659427367613425
0.9575,1.4777529280960766,1.4659427367613425
0.9581249999999999,1.4767368949297746,1.4659427367613425
0.9587500000000002,1.4763982172076733,1.4659427367613425
0.9593750000000001,1.4757208617634716,1.4659427367613425
0.96,1.4757208617634716,1.4659427367613425
0.9606250000000003,1.47504350631927,1.4659427367613425
0.9612500000000002,1.47504350631927,1.4659427367613425
0.961875,1.47504350631927,1.4659427367613425
0.9624999999999999,1.4747048285971693,1.4659427367613425
0.9631250000000002,1.47504350631927,1.4659427367613425
0.9637500000000001,1.4757208617634716,1.4659427367613425
0.964375,1.4760595394855724,1.4656100655523274
0.9650000000000003,1.4767368949297743,1.4656100655523274
0.9656250000000002,1.4774142503739758,1.4656100655523274
0.96625,1.4777529280960766,1.4656100655523274
0.9668749999999999,1.4780916058181772,1.4652773943433124
0.9675000000000002,1.4784302835402785,1.4652773943433122
0.9681250000000001,1.47910763898448,1.4652773943433122
0.96875,1.4794463167065806,1.4652773943433122
0.9693749999999999,1.4797849944286812,1.4652773943433122
0.9700000000000002,1.4801236721507822,1.4652773943433122
0.9706250000000001,1.4801236721507822,1.4652773943433122
0.97125,1.4801236721507822,1.4652773943433122
0.9718750000000003,1.4797849944286814,1.4652773943433122
0.9725000000000001,1.4797849944286814,1.4652773943433122
0.973125,1.4797849944286814,1.4652773943433122
0.9737499999999999,1.4791076389844802,1.4652773943433122
0.9743750000000002,1.4787689612623791,1.4656100655523274
0.9750000000000001,1.4784302835402783,1.4656100655523274
0.975625,1.4780916058181774,1.4659427367613425
0.9762500000000003,1.4777529280960764,1.4659427367613427
0.9768750000000002,1.477075572651875,1.4662754079703577
0.9775,1.4767368949297741,1.4662754079703577
0.9781249999999999,1.4760595394855727,1.4666080791793727
0.9787500000000002,1.4753821840413708,1.466608079179373
0.9793750000000001,1.47504350631927,1.466608079179373
0.98,1.4747048285971691,1.466608079179373
0.9806250000000003,1.4747048285971693,1.4666080791793732
0.9812500000000002,1.47504350631927,1.4669407503883882
0.981875,1.4753821840413708,1.4669407503883882
0.9824999999999999,1.4757208617634714,1.4669407503883882
0.9831250000000002,1.4757208617634718,1.4669407503883882
0.9837500000000001,1.4760595394855724,1.4669407503883882
0.984375,1.4763982172076733,1.4669407503883882
0.9849999999999999,1.4770755726518747,1.4669407503883882
0.9856250000000002,1.4774142503739758,1.4669407503883882
0.9862500000000001,1.4777529280960766,1.466608079179373
0.986875,1.4780916058181774,1.466608079179373
0.9875000000000003,1.4780916058181777,1.466608079179373
0.9881250000000001,1.4784302835402783,1.466608079179373
0.98875,1.4784302835402783,1.4662754079703577
0.9893749999999999,1.478768961262379,1.4662754079703577
0.9900000000000002,1.4787689612623791,1.4662754079703577
0.9906250000000001,1.47910763898448,1.4662754079703577
0.99125,1.4787689612623791,1.4662754079703577
0.9918750000000003,1.4787689612623791,1.4662754079703577
0.9925000000000002,1.4787689612623791,1.4662754079703577
0.993125,1.4784302835402783,1.4662754079703577
0.9937499999999999,1.4780916058181777,1.4662754079703577
0.9943750000000002,1.4777529280960766,1.466608079179373
0.9950000000000001,1.4774142503739758,1.466608079179373
0.995625,1.477075572651875,1.4669407503883882
0.9962500000000003,1.4767368949297741,1.4669407503883884
0.9968750000000002,1.4767368949297741,1.4672734215974035
0.9975,1.4763982172076733,1.4672734215974035
0.9981249999999999,1.4760595394855727,1.4676060928064185
0.9987500000000002,1.4757208617634714,1.4676060928064187
0.9993750000000001,1.4753821840413708,1.4676060928064187
1,1.4753821840413708,1.4676060928064187
1.0006249999999999,1.4750435063192702,1.4679387640154338
1.0012500000000002,1.47504350631927,1.467938764015434
1.001875,1.4747048285971691,1.467938764015434
1.0025,1.4747048285971691,1.467938764015434
1.0031250000000003,1.4753821840413708,1.467938764015434
1.0037500000000001,1.4753821840413708,1.467938764015434
1.004375,1.4760595394855724,1.467938764015434
1.005,1.4760595394855724,1.467938764015434
1.0056250000000002,1.4767368949297741,1.467938764015434
1.00625,1.4774142503739758,1.467938764015434
1.006875,1.4777529280960766,1.4676060928064187
1.0075000000000003,1.4784302835402785,1.4676060928064187
1.0081250000000002,1.4787689612623791,1.4676060928064187
1.00875,1.47910763898448,1.4676060928064187
1.009375,1.4794463167065803,1.4676060928064187
1.0100000000000002,1.4794463167065806,1.4676060928064187
1.010625,1.4797849944286814,1.4672734215974035
1.01125,1.4797849944286814,1.4676060928064187
1.0118750000000003,1.4797849944286812,1.4676060928064187
1.0125000000000002,1.4794463167065806,1.4676060928064187
1.013125,1.4794463167065806,1.4676060928064187
1.01375,1.4791076389844802,1.4679387640154338
1.0143750000000002,1.478430283540278,1.467938764015434
1.0150000000000001,1.4780916058181774,1.467938764015434
1.015625,1.4777529280960766,1.4682714352244493
1.0162499999999999,1.4770755726518752,1.4682714352244493
1.0168750000000002,1.4767368949297741,1.4682714352244493
1.0175,1.4763982172076733,1.4686041064334645
1.018125,1.4760595394855724,1.4686041064334645
1.0187500000000003,1.4757208617634714,1.4686041064334645
1.0193750000000001,1.4753821840413708,1.4686041064334645
1.02,1.4753821840413708,1.4689367776424798
1.020625,1.4750435063192702,1.4689367776424798
1.0212500000000002,1.4753821840413708,1.469269448851495
1.021875,1.4753821840413708,1.469269448851495
1.0225,1.4753821840413708,1.469269448851495
1.0231250000000003,1.475382184041371,1.469269448851495
1.0237500000000002,1.4757208617634716,1.469269448851495
1.024375,1.4760595394855724,1.469269448851495
1.025,1.476398217207673,1.469269448851495
1.0256250000000002,1.4767368949297741,1.4689367776424798
1.02625,1.4774142503739758,1.4689367776424798
1.026875,1.4777529280960766,1.4689367776424798
1.0275000000000003,1.4784302835402785,1.4689367776424795
1.0281250000000002,1.4787689612623791,1.4686041064334645
1.02875,1.47910763898448,1.4686041064334645
1.029375,1.4794463167065803,1.4686041064334645
1.0300000000000002,1.4797849944286814,1.4686041064334643
1.0306250000000001,1.4797849944286814,1.4682714352244493
1.03125,1.4801236721507822,1.4686041064334645
1.0318749999999999,1.4801236721507822,1.4686041064334645
1.0325000000000002,1.4797849944286814,1.4682714352244493
1.033125,1.4797849944286814,1.4686041064334645
1.03375,1.4794463167065806,1.4686041064334645
1.0343750000000003,1.478768961262379,1.4686041064334645
1.0350000000000001,1.4784302835402783,1.4686041064334645
1.035625,1.4784302835402783,1.4689367776424798
1.03625,1.4777529280960768,1.4689367776424798
1.0368750000000002,1.4774142503739758,1.4689367776424798
1.0375,1.477075572651875,1.4689367776424798
1.038125,1.4763982172076733,1.469269448851495
1.0387500000000003,1.476398217207673,1.469269448851495
1.0393750000000002,1.4757208617634716,1.469269448851495
1.04,1.4753821840413708,1.4696021200605103
1.040625,1.4750435063192702,1.4696021200605103
1.0412500000000002,1.47504350631927,1.4699347912695255
1.041875,1.47504350631927,1.4696021200605103
1.0425,1.4753821840413708,1.4696021200605103
1.0431250000000003,1.475382184041371,1.4696021200605103
1.0437500000000002,1.4757208617634716,1.4696021200605103
1.044375,1.4760595394855724,1.4696021200605103
1.045,1.4760595394855724,1.4696021200605103
1.0456250000000002,1.4763982172076735,1.4692694488514952
1.0462500000000001,1.477075572651875,1.4696021200605103
1.046875,1.4777529280960766,1.469269448851495
1.0474999999999999,1.4780916058181772,1.46893677764248
1.0481250000000002,1.4787689612623791,1.4689367776424798
1.04875,1.47910763898448,1.4689367776424798
1.049375,1.4794463167065806,1.4689367776424798
1.0500000000000003,1.4797849944286814,1.4689367776424798
1.0506250000000001,1.4797849944286814,1.4689367776424798
1.05125,1.4801236721507822,1.4689367776424798
1.051875,1.4801236721507822,1.4689367776424798
1.0525000000000002,1.4801236721507822,1.4689367776424798
1.053125,1.4801236721507822,1.4689367776424798
1.05375,1.4801236721507822,1.469269448851495
1.0543750000000003,1.4794463167065803,1.4692694488514952
1.0550000000000002,1.47910763898448,1.4696021200605103
1.055625,1.47910763898448,1.4696021200605103
1.05625,1.4784302835402785,1.4699347912695253
1.0568750000000002,1.4780916058181774,1.4699347912695255
1.0575,1.4777529280960766,1.4702674624785408
1.058125,1.477075572651875,1.4702674624785408
1.0587500000000003,1.476736894929774,1.4702674624785408
1.0593750000000002,1.4763982172076733,1.4702674624785408
1.06,1.4763982172076733,1.4702674624785408
1.060625,1.4760595394855727,1.4702674624785408
1.0612500000000002,1.4760595394855727,1.4702674624785408
1.0618750000000001,1.4763982172076733,1.4702674624785408
1.0625,1.4763982172076733,1.4702674624785408
1.0631249999999999,1.476736894929774,1.4706001336875558
1.0637500000000002,1.477075572651875,1.4702674624785408
1.064375,1.4774142503739758,1.4702674624785408
1.065,1.4777529280960766,1.4702674624785408
1.0656250000000003,1.4780916058181777,1.4702674624785406
1.0662500000000001,1.4787689612623791,1.4699347912695255
1.066875,1.47910763898448,1.4699347912695255
1.0675,1.4794463167065803,1.4699347912695255
1.0681250000000002,1.4797849944286814,1.4696021200605103
1.06875,1.4801236721507822,1.4696021200605103
1.069375,1.480462349872883,1.469269448851495
1.0700000000000003,1.4808010275949839,1.469269448851495
1.0706250000000002,1.4808010275949839,1.469269448851495
1.07125,1.480462349872883,1.469269448851495
1.071875,1.480462349872883,1.469269448851495
1.0725000000000002,1.480462349872883,1.469269448851495
1.073125,1.480462349872883,1.469269448851495
1.07375,1.480462349872883,1.4696021200605103
1.0743750000000003,1.4797849944286812,1.4696021200605103
1.0750000000000002,1.4794463167065806,1.4696021200605103
1.075625,1.4794463167065806,1.4699347912695255
1.07625,1.4791076389844802,1.4699347912695255
1.0768750000000002,1.478768961262379,1.4702674624785408
1.0775000000000001,1.4784302835402783,1.4702674624785408
1.078125,1.4777529280960766,1.470600133687556
1.0787499999999999,1.477414250373976,1.470600133687556
1.0793750000000002,1.4774142503739758,1.470600133687556
1.08,1.477075572651875,1.470600133687556
1.080625,1.477075572651875,1.470600133687556
1.0812500000000003,1.477075572651875,1.470932804896571
1.0818750000000001,1.477075572651875,1.470932804896571
1.0825,1.4774142503739758,1.470932804896571
1.083125,1.4777529280960764,1.470932804896571
1.0837500000000002,1.4780916058181774,1.470932804896571
1.084375,1.4780916058181774,1.470600133687556
1.085,1.4784302835402783,1.470600133687556
1.0856250000000003,1.4787689612623793,1.4706001336875558
1.0862500000000002,1.47910763898448,1.4702674624785408
1.086875,1.4797849944286814,1.4702674624785408
1.0875,1.4797849944286814,1.4699347912695258
1.0881250000000002,1.480462349872883,1.4699347912695255
1.08875,1.480462349872883,1.4699347912695255
1.089375,1.4808010275949839,1.4699347912695255
1.0900000000000003,1.4811397053170847,1.4699347912695253
1.0906250000000002,1.4811397053170847,1.4696021200605103
1.09125,1.4811397053170847,1.4696021200605103
1.091875,1.4814783830391853,1.4699347912695253
1.0925000000000002,1.4811397053170845,1.4696021200605105
1.0931250000000001,1.4808010275949839,1.4699347912695255
1.09375,1.480462349872883,1.4699347912695255
1.0943749999999999,1.4801236721507824,1.4699347912695255
1.0950000000000002,1.4797849944286814,1.4702674624785408
1.095625,1.4794463167065806,1.4702674624785408
1.09625,1.4787689612623791,1.4702674624785408
1.0968750000000003,1.478430283540278,1.470600133687556
1.0975000000000001,1.4780916058181774,1.470600133687556
1.098125,1.4777529280960766,1.470600133687556
1.09875,1.477414250373976,1.470600133687556
1.0993750000000002,1.4774142503739758,1.470932804896571
1.1,1.477075572651875,1.470932804896571
1.100625,1.477075572651875,1.470932804896571
1.1012500000000003,1.4767368949297741,1.4709328048965713
1.1018750000000002,1.4767368949297741,1.4712654761055863
1.1025,1.477075572651875,1.4712654761055863
1.103125,1.477075572651875,1.4712654761055863
1.1037500000000002,1.4774142503739758,1.4712654761055863
1.104375,1.4777529280960766,1.470932804896571
1.105,1.4780916058181774,1.4712654761055863
1.1056250000000003,1.4784302835402785,1.470932804896571
1.1062500000000002,1.4787689612623791,1.470932804896571
1.106875,1.4787689612623791,1.470600133687556
1.1075,1.4791076389844797,1.470600133687556
1.1081250000000002,1.4794463167065808,1.4702674624785408
1.1087500000000001,1.4797849944286814,1.4702674624785408
1.109375,1.4801236721507822,1.4702674624785408
1.1099999999999999,1.4804623498728828,1.4702674624785408
1.1106250000000002,1.480462349872883,1.4702674624785408
1.11125,1.4808010275949839,1.4702674624785408
1.111875,1.4811397053170847,1.470600133687556
1.1125000000000003,1.4808010275949839,1.470600133687556
1.1131250000000001,1.4808010275949839,1.470600133687556
1.11375,1.480462349872883,1.470600133687556
1.114375,1.4801236721507824,1.4709328048965709
1.1150000000000002,1.4797849944286814,1.470932804896571
1.115625,1.47910763898448,1.4712654761055863
1.11625,1.4787689612623791,1.4715981473146016
1.1168750000000003,1.478430283540278,1.4715981473146018
1.1175000000000002,1.4780916058181774,1.4719308185236168
1.118125,1.4777529280960766,1.472263489732632
1.11875,1.477414250373976,1.472263489732632
1.1193750000000002,1.477075572651875,1.472263489732632
1.12,1.477075572651875,1.472263489732632
1.120625,1.4767368949297741,1.4725961609416474
1.1212500000000003,1.4767368949297743,1.4725961609416476
1.1218750000000002,1.477075572651875,1.4729288321506626
1.1225,1.477075572651875,1.4729288321506626
1.123125,1.477075572651875,1.4729288321506626
1.1237500000000002,1.477414250373976,1.4729288321506626
1.1243750000000001,1.4777529280960766,1.4729288321506626
1.125,1.4777529280960766,1.4729288321506626
1.1256249999999999,1.4780916058181772,1.4729288321506626
1.1262500000000002,1.4784302835402783,1.4725961609416474
1.126875,1.4787689612623791,1.4725961609416474
1.1275,1.47910763898448,1.4725961609416474
1.1281250000000003,1.4797849944286814,1.4729288321506626
1.1287500000000001,1.4797849944286814,1.4729288321506626
1.129375,1.4801236721507822,1.4729288321506626
1.13,1.4804623498728828,1.4729288321506626
1.1306250000000002,1.480462349872883,1.4729288321506626
1.13125,1.480462349872883,1.4729288321506626
1.131875,1.4808010275949839,1.4732615033596779
1.1325000000000003,1.4808010275949839,1.473261503359678
1.1331250000000002,1.4808010275949839,1.4735941745686931
1.13375,1.480462349872883,1.4735941745686931
1.134375,1.4801236721507824,1.4739268457777082
1.1350000000000002,1.4797849944286814,1.4742595169867236
1.135625,1.4794463167065806,1.4742595169867236
1.13625,1.47910763898448,1.474592188195739
1.1368750000000003,1.478768961262379,1.4749248594047542
1.1375000000000002,1.4784302835402783,1.4749248594047542
1.138125,1.4780916058181774,1.4752575306137694
1.13875,1.4777529280960768,1.4755902018227844
1.1393750000000002,1.4774142503739758,1.4755902018227847
1.1400000000000001,1.4774142503739758,1.4755902018227847
1.140625,1.477075572651875,1.4759228730318
1.1412499999999999,1.477075572651875,1.4759228730318
1.1418750000000002,1.477075572651875,1.476255544240815
1.1425,1.4767368949297741,1.476255544240815
1.143125,1.4767368949297741,1.476255544240815
1.1437500000000003,1.4767368949297743,1.476255544240815
1.1443750000000001,1.477075572651875,1.476255544240815
1.145,1.4774142503739758,1.476255544240815
1.145625,1.4774142503739758,1.476255544240815
1.1462500000000002,1.4777529280960766,1.4759228730318
1.146875,1.4777529280960766,1.4759228730318
1.1475,1.4780916058181774,1.4755902018227847
1.1481250000000003,1.4784302835402785,1.4755902018227847
1.1487500000000002,1.4787689612623791,1.4755902018227847
1.149375,1.47910763898448,1.4752575306137694
1.15,1.4794463167065803,1.4752575306137694
1.1506250000000002,1.4797849944286814,1.4752575306137694
1.15125,1.4801236721507822,1.4755902018227847
1.151875,1.4801236721507822,1.4755902018227847
1.1525000000000003,1.4801236721507822,1.4755902018227847
1.1531250000000002,1.4801236721507822,1.4755902018227847
1.15375,1.4801236721507822,1.4759228730318
1.154375,1.4797849944286816,1.4762555442408147
1.1550000000000002,1.4794463167065803,1.476255544240815
1.1556250000000001,1.4787689612623791,1.476255544240815
1.15625,1.4787689612623791,1.4765882154498302
1.1568749999999999,1.4784302835402785,1.4765882154498302
1.1575000000000002,1.4780916058181774,1.4765882154498302
1.158125,1.4774142503739758,1.4765882154498302
1.15875,1.4767368949297741,1.4769208866588455
1.1593750000000003,1.476398217207673,1.4769208866588455
1.1600000000000001,1.4760595394855724,1.4769208866588455
1.160625,1.4760595394855724,1.4769208866588455
1.16125,1.4760595394855724,1.4769208866588455
1.1618750000000002,1.4760595394855724,1.4769208866588455
1.1625,1.4760595394855724,1.4769208866588455
1.163125,1.4763982172076733,1.4769208866588455
1.1637500000000003,1.4767368949297741,1.4765882154498302
1.1643750000000002,1.4767368949297741,1.4765882154498302
1.165,1.477075572651875,1.4765882154498302
1.165625,1.4777529280960764,1.4765882154498302
1.1662500000000002,1.4780916058181774,1.476255544240815
1.166875,1.4784302835402783,1.4765882154498302
1.1675,1.4787689612623791,1.476255544240815
1.1681250000000003,1.4794463167065808,1.476255544240815
1.1687500000000002,1.4797849944286814,1.476255544240815
1.169375,1.4801236721507822,1.476255544240815
1.17,1.4804623498728828,1.476255544240815
1.1706250000000002,1.4808010275949837,1.476255544240815
1.1712500000000001,1.480462349872883,1.476255544240815
1.171875,1.480462349872883,1.476255544240815
1.1724999999999999,1.4801236721507824,1.476255544240815
1.1731250000000002,1.4801236721507822,1.476255544240815
1.17375,1.4797849944286814,1.476255544240815
1.174375,1.4797849944286814,1.476255544240815
1.1750000000000003,1.4794463167065803,1.4762555442408152
1.1756250000000001,1.4787689612623791,1.4765882154498302
1.17625,1.4784302835402783,1.4765882154498302
1.176875,1.4780916058181777,1.4769208866588452
1.1775000000000002,1.4777529280960766,1.4769208866588455
1.178125,1.4774142503739758,1.4769208866588455
1.17875,1.4767368949297741,1.4769208866588455
1.1793750000000003,1.476736894929774,1.4772535578678607
1.1800000000000002,1.4763982172076733,1.4772535578678607
1.180625,1.4763982172076733,1.4772535578678607
1.18125,1.4763982172076733,1.4772535578678607
1.1818750000000002,1.4763982172076733,1.4772535578678607
1.1825,1.4763982172076733,1.4772535578678607
1.183125,1.4763982172076733,1.4772535578678607
1.1837500000000003,1.4767368949297743,1.4772535578678605
1.1843750000000002,1.477075572651875,1.4769208866588455
1.185,1.4774142503739758,1.4769208866588455
1.185625,1.4777529280960764,1.4765882154498304
1.1862500000000002,1.4780916058181777,1.47658821544983
1.1868750000000001,1.4787689612623791,1.476255544240815
1.1875,1.47910763898448,1.476255544240815
1.1881249999999999,1.4794463167065803,1.4759228730318001
1.1887500000000002,1.4797849944286814,1.4759228730318
1.189375,1.4801236721507822,1.4759228730318
1.19,1.480462349872883,1.4759228730318
1.1906250000000003,1.4808010275949839,1.4759228730317997
1.1912500000000001,1.4808010275949839,1.4755902018227847
1.191875,1.4808010275949839,1.4759228730318
1.1925,1.4808010275949839,1.4759228730318
1.1931250000000002,1.480462349872883,1.4759228730318
1.19375,1.480462349872883,1.4755902018227847
1.194375,1.4797849944286814,1.4759228730318
1.1950000000000003,1.4794463167065803,1.4759228730318
1.1956250000000002,1.47910763898448,1.4759228730318
1.19625,1.4787689612623791,1.4759228730318
1.196875,1.4784302835402785,1.4759228730318
1.1975000000000002,1.4780916058181774,1.476255544240815
1.198125,1.4777529280960766,1.476255544240815
1.19875,1.477075572651875,1.476255544240815
1.1993750000000003,1.4767368949297741,1.476255544240815
1.2000000000000002,1.4767368949297741,1.476255544240815
1.200625,1.4763982172076733,1.476255544240815
1.20125,1.476736894929774,1.476255544240815
1.2018750000000002,1.4767368949297741,1.476255544240815
1.2025000000000001,1.4767368949297741,1.476255544240815
1.203125,1.477075572651875,1.476255544240815
1.2037499999999999,1.4774142503739756,1.476255544240815
1.2043750000000002,1.4777529280960766,1.4759228730318
1.205,1.4780916058181774,1.4759228730318
1.205625,1.4787689612623791,1.4759228730318
1.2062500000000003,1.4791076389844802,1.4755902018227847
1.2068750000000001,1.4797849944286814,1.4755902018227847
1.2075,1.4801236721507822,1.4755902018227847
1.208125,1.4804623498728828,1.4755902018227847
1.2087500000000002,1.4808010275949839,1.4752575306137694
1.209375,1.4808010275949839,1.4752575306137694
1.21,1.4811397053170847,1.4752575306137694
1.2106250000000003,1.4811397053170847,1.4752575306137694
1.2112500000000002,1.4811397053170847,1.4752575306137694
1.211875,1.4811397053170847,1.4752575306137694
1.2125,1.480801027594984,1.4752575306137694
1.2131250000000002,1.480462349872883,1.4752575306137694
1.21375,1.4801236721507822,1.4752575306137694
1.214375,1.4797849944286814,1.4752575306137694
1.2150000000000003,1.4791076389844797,1.4755902018227847
1.2156250000000002,1.4784302835402783,1.4755902018227847
1.21625,1.4784302835402783,1.4759228730318
1.216875,1.4780916058181777,1.4759228730318
1.2175000000000002,1.4777529280960766,1.4759228730318001
1.2181250000000001,1.4777529280960766,1.476255544240815
1.21875,1.4774142503739758,1.4765882154498302
1.2193749999999999,1.4770755726518752,1.4765882154498302
1.2200000000000002,1.477075572651875,1.4765882154498302
1.220625,1.4767368949297741,1.4765882154498302
1.22125,1.4767368949297741,1.4769208866588455
1.2218750000000003,1.4767368949297741,1.4769208866588455
1.2225000000000001,1.4767368949297741,1.4769208866588455
1.223125,1.477075572651875,1.4769208866588455
1.22375,1.4774142503739756,1.4769208866588455
1.2243750000000002,1.4780916058181774,1.4769208866588455
1.225,1.4784302835402783,1.4769208866588455
1.225625,1.4787689612623791,1.4769208866588455
1.2262500000000003,1.4791076389844802,1.4765882154498302
1.2268750000000002,1.4794463167065806,1.4765882154498302
1.2275,1.4797849944286814,1.4765882154498302
1.228125,1.480123672150782,1.4765882154498302
1.2287500000000002,1.4801236721507822,1.476255544240815
1.229375,1.4801236721507822,1.476255544240815
1.23,1.480462349872883,1.476255544240815
1.2306250000000003,1.480462349872883,1.4762555442408147
1.2312500000000002,1.480462349872883,1.4759228730318
1.231875,1.480462349872883,1.476255544240815
1.2325,1.4801236721507824,1.476255544240815
1.2331250000000002,1.4797849944286812,1.476255544240815
1.2337500000000001,1.47910763898448,1.476255544240815
1.234375,1.4787689612623791,1.4765882154498302
1.2349999999999999,1.4784302835402785,1.4765882154498302
1.2356250000000002,1.4780916058181774,1.4765882154498302
1.23625,1.4777529280960766,1.4765882154498302
1.236875,1.477075572651875,1.4769208866588455
1.2375000000000003,1.4770755726518747,1.4769208866588457
1.2381250000000001,1.4767368949297741,1.4772535578678607
1.23875,1.4763982172076733,1.4772535578678607
1.239375,1.4763982172076733,1.4775862290768758
1.2400000000000002,1.4763982172076733,1.477586229076876
1.240625,1.4760595394855724,1.477586229076876
1.2412500000000002,1.4760595394855724,1.4779189002858912
1.241875,1.4760595394855724,1.4779189002858912
1.2425000000000002,1.4760595394855724,1.4779189002858912
1.243125,1.4763982172076733,1.4779189002858912
1.2437500000000001,1.4767368949297741,1.4779189002858912
1.244375,1.4774142503739758,1.4779189002858912
1.245,1.4777529280960766,1.4779189002858912
1.245625,1.4784302835402783,1.4779189002858912
1.24625,1.4787689612623791,1.4779189002858912
1.2468750000000002,1.47910763898448,1.477586229076876
1.2475,1.4794463167065806,1.477586229076876
1.2481250000000002,1.4797849944286814,1.477586229076876
1.24875,1.4801236721507822,1.477586229076876
1.2493750000000001,1.4801236721507822,1.477586229076876
1.25,1.480462349872883,1.477586229076876
1.250625,1.480462349872883,1.477586229076876
1.2512500000000002,1.4801236721507822,1.4772535578678607
1.251875,1.4801236721507822,1.477586229076876
1.2525000000000002,1.4797849944286814,1.477586229076876
1.253125,1.4797849944286814,1.477586229076876
1.2537500000000001,1.4794463167065806,1.4779189002858912
1.254375,1.47910763898448,1.4779189002858912
1.2550000000000001,1.4787689612623791,1.4779189002858912
1.255625,1.4784302835402783,1.4782515714949065
1.25625,1.4777529280960766,1.4782515714949065
1.2568750000000002,1.4774142503739758,1.4785842427039217
1.2575,1.477075572651875,1.4785842427039217
1.2581250000000002,1.4767368949297741,1.4785842427039217
1.25875,1.4763982172076733,1.478916913912937
1.2593750000000001,1.4760595394855724,1.478916913912937
1.26,1.4757208617634716,1.478916913912937
1.260625,1.4757208617634716,1.4792495851219523
1.26125,1.4757208617634716,1.4792495851219523
1.261875,1.4757208617634716,1.4792495851219523
1.2625000000000002,1.4760595394855724,1.4795822563309675
1.263125,1.4760595394855724,1.4795822563309675
1.2637500000000002,1.4763982172076733,1.4795822563309675
1.264375,1.4763982172076733,1.4792495851219523
1.2650000000000001,1.4763982172076733,1.4795822563309675
1.265625,1.4767368949297741,1.4792495851219523
1.26625,1.477075572651875,1.4792495851219523
1.2668750000000002,1.4774142503739758,1.4792495851219523
1.2675,1.4777529280960766,1.478916913912937
1.2681250000000002,1.4780916058181774,1.478916913912937
1.26875,1.4784302835402783,1.478916913912937
1.2693750000000001,1.4787689612623791,1.4785842427039217
1.27,1.47910763898448,1.4785842427039217
1.2706250000000001,1.4794463167065806,1.4785842427039217
1.27125,1.4794463167065806,1.4785842427039217
1.271875,1.4794463167065806,1.4785842427039217
1.2725000000000002,1.4794463167065806,1.4785842427039217
1.273125,1.4794463167065806,1.478916913912937
1.2737500000000002,1.47910763898448,1.478916913912937
1.274375,1.4787689612623791,1.4792495851219523
1.2750000000000001,1.4787689612623791,1.4792495851219523
1.275625,1.4780916058181774,1.4792495851219523
1.27625,1.4777529280960766,1.4792495851219523
1.276875,1.4774142503739758,1.4795822563309675
1.2775,1.477075572651875,1.4795822563309675
1.2781250000000002,1.4767368949297741,1.4795822563309675
1.27875,1.4763982172076733,1.4799149275399828
1.2793750000000002,1.4760595394855724,1.4799149275399828
1.28,1.4760595394855724,1.4799149275399828
1.2806250000000001,1.4757208617634716,1.4799149275399828
1.28125,1.4757208617634716,1.4799149275399828
1.281875,1.4757208617634716,1.4799149275399828
1.2825000000000002,1.4760595394855724,1.4799149275399828
1.283125,1.4760595394855724,1.4795822563309675
1.2837500000000002,1.4763982172076733,1.4795822563309675
1.284375,1.4767368949297741,1.4795822563309675
1.2850000000000001,1.477075572651875,1.4792495851219523
1.285625,1.4774142503739758,1.4792495851219523
1.2862500000000001,1.4774142503739758,1.478916913912937
1.286875,1.4780916058181774,1.478916913912937
1.2875,1.4784302835402783,1.478916913912937
1.2881250000000002,1.47910763898448,1.478916913912937
1.28875,1.4794463167065806,1.478916913912937
1.2893750000000002,1.4797849944286814,1.478916913912937
1.29,1.4797849944286814,1.478916913912937
1.2906250000000001,1.4801236721507822,1.4785842427039217
1.29125,1.4801236721507822,1.4785842427039217
1.291875,1.4801236721507822,1.478916913912937
1.2925,1.4797849944286814,1.4785842427039217
1.293125,1.4797849944286814,1.4785842427039217
1.2937500000000002,1.4794463167065806,1.4785842427039217
1.294375,1.4787689612623791,1.478916913912937
1.2950000000000002,1.4787689612623791,1.478916913912937
1.295625,1.4784302835402783,1.4792495851219523
1.2962500000000001,1.4777529280960766,1.4792495851219523
1.296875,1.477075572651875,1.4792495851219523
1.2975,1.4767368949297741,1.4795822563309675
1.2981250000000002,1.4763982172076733,1.4795822563309675
1.29875,1.4757208617634716,1.4795822563309675
1.2993750000000002,1.4753821840413708,1.4795822563309675
1.3,1.47504350631927,1.4795822563309675
1.3006250000000001,1.47504350631927,1.4795822563309675
1.30125,1.47504350631927,1.4799149275399828
1.3018750000000001,1.47504350631927,1.4795822563309675
1.3025,1.47504350631927,1.4795822563309675
1.303125,1.4757208617634716,1.4795822563309675
1.3037500000000002,1.4760595394855724,1.4795822563309675
1.304375,1.4767368949297741,1.4795822563309675
1.3050000000000002,1.477075572651875,1.4795822563309675
1.305625,1.4774142503739758,1.4792495851219523
1.3062500000000001,1.4777529280960766,1.4792495851219523
1.306875,1.4784302835402783,1.478916913912937
1.3075,1.4787689612623791,1.478916913912937
1.308125,1.47910763898448,1.4785842427039217
1.30875,1.4794463167065806,1.4785842427039217
1.3093750000000002,1.4794463167065806,1.4785842427039217
1.31,1.4794463167065806,1.4782515714949065
1.3106250000000002,1.4794463167065806,1.4782515714949065
1.31125,1.4797849944286814,1.4782515714949065
1.3118750000000001,1.4797849944286814,1.4782515714949065
1.3125,1.4794463167065806,1.4782515714949065
1.313125,1.47910763898448,1.4782515714949065
1.3137500000000002,1.4787689612623791,1.4782515714949065
1.314375,1.4784302835402783,1.4785842427039217
1.3150000000000002,1.4777529280960766,1.4785842427039217
1.315625,1.4774142503739758,1.4785842427039217
1.3162500000000001,1.477075572651875,1.478916913912937
1.316875,1.4767368949297741,1.478916913912937
1.3175000000000001,1.4763982172076733,1.4792495851219523
1.318125,1.4760595394855724,1.4792495851219523
1.31875,1.4757208617634716,1.4792495851219523
1.3193750000000002,1.4753821840413708,1.4792495851219523
1.32,1.47504350631927,1.4795822563309675
1.3206250000000002,1.47504350631927,1.4795822563309675
1.32125,1.4747048285971691,1.4795822563309675
1.3218750000000001,1.4747048285971691,1.4795822563309675
1.3225,1.47504350631927,1.4795822563309675
1.323125,1.47504350631927,1.4795822563309675
1.32375,1.4757208617634716,1.4795822563309675
1.324375,1.4760595394855724,1.4795822563309675
1.3250000000000002,1.4767368949297741,1.4795822563309675
1.325625,1.477075572651875,1.4792495851219523
1.3262500000000002,1.4777529280960766,1.4792495851219523
1.326875,1.4780916058181774,1.4792495851219523
1.3275000000000001,1.4784302835402783,1.4792495851219523
1.328125,1.47910763898448,1.4792495851219523
1.32875,1.4794463167065806,1.4792495851219523
1.3293750000000002,1.4794463167065806,1.4792495851219523
1.33,1.4797849944286814,1.4792495851219523
1.3306250000000002,1.4801236721507822,1.4792495851219523
1.33125,1.4797849944286814,1.4792495851219523
1.3318750000000001,1.4797849944286814,1.4792495851219523
1.3325,1.4794463167065806,1.4792495851219523
1.3331250000000001,1.4794463167065806,1.4792495851219523
1.33375,1.47910763898448,1.4792495851219523
1.334375,1.4787689612623791,1.4792495851219523
1.3350000000000002,1.4784302835402783,1.4795822563309675
1.335625,1.4777529280960766,1.4795822563309675
1.3362500000000002,1.4774142503739758,1.4795822563309675
1.336875,1.477075572651875,1.4799149275399828
1.3375000000000001,1.4767368949297741,1.4799149275399828
1.338125,1.4760595394855724,1.4799149275399828
1.33875,1.4757208617634716,1.480247598748998
1.339375,1.4753821840413708,1.480247598748998
1.34,1.47504350631927,1.480247598748998
1.3406250000000002,1.47504350631927,1.480247598748998
1.34125,1.47504350631927,1.480247598748998
1.3418750000000002,1.47504350631927,1.480247598748998
1.3425,1.47504350631927,1.480247598748998
1.3431250000000001,1.4753821840413708,1.480247598748998
1.34375,1.4753821840413708,1.480247598748998
1.344375,1.4760595394855724,1.4799149275399828
1.3450000000000002,1.4763982172076733,1.4799149275399828
1.345625,1.4767368949297741,1.4799149275399828
1.3462500000000002,1.477075572651875,1.4795822563309675
1.346875,1.4777529280960766,1.4792495851219523
1.3475000000000001,1.4780916058181774,1.4792495851219523
1.348125,1.4784302835402783,1.4792495851219523
1.3487500000000001,1.4787689612623791,1.478916913912937
1.349375,1.4787689612623791,1.478916913912937
1.35,1.47910763898448,1.478916913912937
1.3506250000000002,1.47910763898448,1.4785842427039217
1.35125,1.47910763898448,1.4785842427039217
1.3518750000000002,1.4787689612623791,1.4785842427039217
1.3525,1.4787689612623791,1.4785842427039217
1.3531250000000001,1.4784302835402783,1.4785842427039217
1.35375,1.4780916058181774,1.4785842427039217
1.354375,1.4774142503739758,1.4785842427039217
1.355,1.477075572651875,1.4785842427039217
1.355625,1.4767368949297741,1.4785842427039217
1.3562500000000002,1.4763982172076733,1.4785842427039217
1.356875,1.4760595394855724,1.478916913912937
1.3575000000000002,1.4760595394855724,1.478916913912937
1.358125,1.4753821840413708,1.478916913912937
1.3587500000000001,1.47504350631927,1.4792495851219523
1.359375,1.4747048285971691,1.4792495851219523
1.36,1.4747048285971691,1.4792495851219523
1.3606250000000002,1.4743661508750683,1.4792495851219523
1.36125,1.4747048285971691,1.4792495851219523
1.3618750000000002,1.4747048285971691,1.4792495851219523
1.3625,1.4747048285971691,1.4792495851219523
1.3631250000000001,1.47504350631927,1.4792495851219523
1.36375,1.4753821840413708,1.4792495851219523
1.3643750000000001,1.4757208617634716,1.4792495851219523
1.365,1.4763982172076733,1.4792495851219523
1.365625,1.4767368949297741,1.478916913912937
1.3662500000000002,1.4774142503739758,1.478916913912937
1.366875,1.4777529280960766,1.478916913912937
1.3675000000000002,1.4784302835402783,1.478916913912937
1.368125,1.4787689612623791,1.478916913912937
1.3687500000000001,1.47910763898448,1.478916913912937
1.369375,1.47910763898448,1.478916913912937
1.37,1.47910763898448,1.478916913912937
1.370625,1.4794463167065806,1.4785842427039217
1.37125,1.4794463167065806,1.4785842427039217
1.3718750000000002,1.47910763898448,1.4785842427039217
1.3725,1.47910763898448,1.4785842427039217
1.3731250000000002,1.4787689612623791,1.4785842427039217
1.37375,1.4787689612623791,1.4785842427039217
1.3743750000000001,1.4784302835402783,1.478916913912937
1.375,1.4780916058181774,1.478916913912937
1.375625,1.4777529280960766,1.4792495851219523
1.3762500000000002,1.4774142503739758,1.4792495851219523
1.376875,1.477075572651875,1.4795822563309675
1.3775000000000002,1.4767368949297741,1.4799149275399828
1.378125,1.4760595394855724,1.4799149275399828
1.3787500000000001,1.4757208617634716,1.4799149275399828
1.379375,1.4753821840413708,1.4799149275399828
1.3800000000000001,1.4753821840413708,1.4799149275399828
1.380625,1.47504350631927,1.4799149275399828
1.38125,1.47504350631927,1.480247598748998
1.3818750000000002,1.47504350631927,1.480247598748998
1.3825,1.47504350631927,1.480247598748998
1.3831250000000002,1.4753821840413708,1.4799149275399828
1.38375,1.4757208617634716,1.4799149275399828
1.3843750000000001,1.4760595394855724,1.4795822563309675
1.385,1.4767368949297741,1.4795822563309675
1.385625,1.4767368949297741,1.4792495851219523
1.38625,1.477075572651875,1.4792495851219523
1.386875,1.4774142503739758,1.478916913912937
1.3875000000000002,1.4780916058181774,1.478916913912937
1.388125,1.4784302835402783,1.4785842427039217
1.3887500000000002,1.4787689612623791,1.4785842427039217
1.389375,1.47910763898448,1.4785842427039217
1.3900000000000001,1.4794463167065806,1.4785842427039217
1.390625,1.4794463167065806,1.4782515714949065
1.39125,1.4794463167065806,1.4782515714949065
1.3918750000000002,1.4794463167065806,1.4782515714949065
1.3925,1.47910763898448,1.4782515714949065
1.3931250000000002,1.47910763898448,1.4782515714949065
1.39375,1.4787689612623791,1.4782515714949065
1.3943750000000001,1.4780916058181774,1.4782515714949065
1.395,1.4780916058181774,1.4782515714949065
1.3956250000000001,1.4777529280960766,1.4785842427039217
1.39625,1.4774142503739758,1.4785842427039217
1.396875,1.4767368949297741,1.4785842427039217
1.3975000000000002,1.4763982172076733,1.4785842427039217
1.398125,1.4760595394855724,1.4785842427039217
1.3987500000000002,1.4757208617634716,1.4785842427039217
1.399375,1.47504350631927,1.4785842427039217
1.4000000000000001,1.4747048285971691,1.4785842427039217
1.400625,1.4743661508750683,1.4785842427039217
1.40125,1.4747048285971691,1.4785842427039217
1.401875,1.4747048285971691,1.4785842427039217
1.4025,1.4747048285971691,1.4785842427039217
1.4031250000000002,1.4747048285971691,1.4785842427039217
1.40375,1.4753821840413708,1.4785842427039217
1.4043750000000002,1.4753821840413708,1.4782515714949065
1.405,1.4757208617634716,1.4782515714949065
1.4056250000000001,1.4760595394855724,1.4779189002858912
1.40625,1.4767368949297741,1.477586229076876
1.406875,1.4774142503739758,1.477586229076876
1.4075000000000002,1.4780916058181774,1.4772535578678607
1.408125,1.4787689612623791,1.4772535578678607
1.4087500000000002,1.47910763898448,1.4769208866588455
1.409375,1.4794463167065806,1.4769208866588455
1.4100000000000001,1.4797849944286814,1.4769208866588455
1.410625,1.4797849944286814,1.4769208866588455
1.4112500000000001,1.4797849944286814,1.4765882154498302
1.411875,1.4797849944286814,1.4765882154498302
1.4125,1.4794463167065806,1.4765882154498302
1.4131250000000002,1.4794463167065806,1.4765882154498302
1.41375,1.4787689612623791,1.4765882154498302
1.4143750000000002,1.4784302835402783,1.4765882154498302
1.415,1.4780916058181774,1.4765882154498302
1.4156250000000001,1.4774142503739758,1.4765882154498302
1.41625,1.477075572651875,1.4765882154498302
1.416875,1.4763982172076733,1.4765882154498302
1.4175,1.4757208617634716,1.4765882154498302
1.418125,1.4753821840413708,1.4769208866588455
1.4187500000000002,1.47504350631927,1.4769208866588455
1.419375,1.4747048285971691,1.4769208866588455
1.4200000000000002,1.4743661508750683,1.4769208866588455
1.420625,1.4743661508750683,1.4769208866588455
1.4212500000000001,1.4743661508750683,1.4769208866588455
1.421875,1.4743661508750683,1.4769208866588455
1.4225,1.4747048285971691,1.4769208866588455
1.4231250000000002,1.47504350631927,1.4769208866588455
1.42375,1.4753821840413708,1.4769208866588455
1.4243750000000002,1.4757208617634716,1.4765882154498302
1.425,1.4760595394855724,1.4765882154498302
1.4256250000000001,1.4767368949297741,1.4765882154498302
1.42625,1.4774142503739758,1.476255544240815
1.4268750000000001,1.4777529280960766,1.476255544240815
1.4275,1.4780916058181774,1.476255544240815
1.428125,1.4787689612623791,1.4759228730318
1.4287500000000002,1.4787689612623791,1.4759228730318
1.429375,1.47910763898448,1.4759228730318
1.4300000000000002,1.4794463167065806,1.4759228730318
1.430625,1.4794463167065806,1.4759228730318
1.4312500000000001,1.4794463167065806,1.4755902018227847
1.431875,1.4794463167065806,1.4755902018227847
1.4325,1.47910763898448,1.4755902018227847
1.433125,1.47910763898448,1.4755902018227847
1.43375,1.4787689612623791,1.4755902018227847
1.4343750000000002,1.4784302835402783,1.4759228730318
1.435,1.4780916058181774,1.4759228730318
1.4356250000000002,1.4777529280960766,1.476255544240815
1.43625,1.477075572651875,1.476255544240815
1.4368750000000001,1.4767368949297741,1.4765882154498302
1.4375,1.4763982172076733,1.4765882154498302
1.438125,1.4760595394855724,1.4765882154498302
1.4387500000000002,1.4753821840413708,1.4769208866588455
1.439375,1.47504350631927,1.4769208866588455
1.4400000000000002,1.47504350631927,1.4769208866588455
1.440625,1.4747048285971691,1.4769208866588455
1.4412500000000001,1.47504350631927,1.4772535578678607
1.441875,1.4753821840413708,1.4769208866588455
1.4425000000000001,1.4757208617634716,1.4772535578678607
1.443125,1.4757208617634716,1.4772535578678607
1.44375,1.4760595394855724,1.4769208866588455
1.4443750000000002,1.4767368949297741,1.4769208866588455
1.445,1.477075572651875,1.4769208866588455
1.4456250000000002,1.4774142503739758,1.4769208866588455
1.44625,1.4777529280960766,1.4765882154498302
1.4468750000000001,1.4784302835402783,1.4765882154498302
1.4475,1.4787689612623791,1.476255544240815
1.448125,1.4794463167065806,1.476255544240815
1.44875,1.4797849944286814,1.476255544240815
1.449375,1.4797849944286814,1.476255544240815
1.4500000000000002,1.4801236721507822,1.476255544240815
1.450625,1.4801236721507822,1.4759228730318
1.4512500000000002,1.4801236721507822,1.4759228730318
1.451875,1.4801236721507822,1.4759228730318
1.4525000000000001,1.4801236721507822,1.4759228730318
1.453125,1.4797849944286814,1.4759228730318
1.45375,1.4794463167065806,1.4759228730318
1.4543750000000002,1.4787689612623791,1.476255544240815
1.455,1.4784302835402783,1.476255544240815
1.4556250000000002,1.4780916058181774,1.476255544240815
1.45625,1.4777529280960766,1.476255544240815
1.4568750000000001,1.477075572651875,1.4765882154498302
1.4575,1.477075572651875,1.4765882154498302
1.4581250000000001,1.4767368949297741,1.4769208866588455
1.45875,1.4763982172076733,1.4769208866588455
1.459375,1.4760595394855724,1.4772535578678607
1.4600000000000002,1.4757208617634716,1.4772535578678607
1.460625,1.4757208617634716,1.4772535578678607
1.4612500000000002,1.4753821840413708,1.4772535578678607
1.461875,1.4757208617634716,1.477586229076876
1.4625000000000001,1.4757208617634716,1.4772535578678607
1.463125,1.4760595394855724,1.4772535578678607
1.46375,1.4763982172076733,1.4772535578678607
1.464375,1.4767368949297741,1.4772535578678607
1.465,1.477075572651875,1.477586229076876
1.4656250000000002,1.4774142503739758,1.4772535578678607
1.46625,1.4780916058181774,1.4772535578678607
1.4668750000000002,1.4784302835402783,1.4772535578678607
1.4675,1.4787689612623791,1.4772535578678607
1.4681250000000001,1.47910763898448,1.4772535578678607
1.46875,1.4794463167065806,1.4769208866588455
1.469375,1.4797849944286814,1.4769208866588455
1.4700000000000002,1.4797849944286814,1.4765882154498302
1.470625,1.4801236721507822,1.4765882154498302
1.4712500000000002,1.4801236721507822,1.476255544240815
1.471875,1.4797849944286814,1.476255544240815
1.4725000000000001,1.4797849944286814,1.476255544240815
1.473125,1.4794463167065806,1.4759228730318
1.4737500000000001,1.4787689612623791,1.4759228730318
1.474375,1.4784302835402783,1.476255544240815
1.475,1.4780916058181774,1.4759228730318
1.4756250000000002,1.4777529280960766,1.476255544240815
1.47625,1.4774142503739758,1.476255544240815
1.4768750000000002,1.477075572651875,1.4765882154498302
1.4775,1.4767368949297741,1.4765882154498302
1.4781250000000001,1.4767368949297741,1.4765882154498302
1.47875,1.4763982172076733,1.4765882154498302
1.479375,1.4763982172076733,1.4769208866588455
1.48,1.4760595394855724,1.4769208866588455
1.480625,1.4760595394855724,1.4769208866588455
1.4812500000000002,1.4760595394855724,1.4769208866588455
1.481875,1.4760595394855724,1.4769208866588455
1.4825000000000002,1.4763982172076733,1.4769208866588455
1.483125,1.4763982172076733,1.4769208866588455
1.4837500000000001,1.4767368949297741,1.4769208866588455
1.484375,1.477075572651875,1.4765882154498302
1.485,1.4774142503739758,1.4765882154498302
1.4856250000000002,1.4777529280960766,1.4765882154498302
1.48625,1.4780916058181774,1.476255544240815
1.4868750000000002,1.4787689612623791,1.476255544240815
1.4875,1.4794463167065806,1.4759228730318
1.4881250000000001,1.4797849944286814,1.4759228730318
1.48875,1.4801236721507822,1.4759228730318
1.4893750000000001,1.480462349872883,1.4755902018227847
1.49,1.4808010275949839,1.4755902018227847
1.490625,1.4811397053170847,1.4755902018227847
1.4912500000000002,1.4811397053170847,1.4752575306137694
1.491875,1.4811397053170847,1.4755902018227847
1.4925000000000002,1.4811397053170847,1.4755902018227847
1.493125,1.4808010275949839,1.4752575306137694
1.4937500000000001,1.480462349872883,1.4752575306137694
1.494375,1.4801236721507822,1.4752575306137694
1.495,1.4797849944286814,1.4752575306137694
1.495625,1.47910763898448,1.4755902018227847
1.49625,1.4787689612623791,1.4755902018227847
1.4968750000000002,1.4780916058181774,1.4755902018227847
1.4975,1.4777529280960766,1.4755902018227847
1.4981250000000002,1.477075572651875,1.4755902018227847
1.49875,1.4767368949297741,1.4755902018227847
1.4993750000000001,1.4763982172076733,1.4755902018227847
1.5,1.4760595394855724,1.4755902018227847
1.500625,1.4760595394855724,1.4755902018227847
1.5012500000000002,1.4760595394855724,1.4755902018227847
1.501875,1.4760595394855724,1.4755902018227847
1.5025000000000002,1.4760595394855724,1.4752575306137694
1.503125,1.4763982172076733,1.4752575306137694
1.5037500000000001,1.4767368949297741,1.4752575306137694
1.504375,1.477075572651875,1.4749248594047542
1.5050000000000001,1.4774142503739758,1.4749248594047542
1.505625,1.4777529280960766,1.474592188195739
1.50625,1.4780916058181774,1.474592188195739
1.5068750000000002,1.4784302835402783,1.4742595169867236
1.5075,1.4787689612623791,1.4742595169867236
1.5081250000000002,1.47910763898448,1.4742595169867236
1.50875,1.4794463167065806,1.4739268457777084
1.5093750000000001,1.47910763898448,1.4739268457777084
1.51,1.47910763898448,1.4739268457777084
1.510625,1.47910763898448,1.4735941745686931
1.51125,1.47910763898448,1.4735941745686931
1.511875,1.47910763898448,1.4735941745686931
1.5125000000000002,1.47910763898448,1.4735941745686931
1.513125,1.47910763898448,1.4735941745686931
1.5137500000000002,1.4787689612623791,1.4735941745686931
1.514375,1.4784302835402783,1.4739268457777084
1.5150000000000001,1.4784302835402783,1.4739268457777084
1.515625,1.4780916058181774,1.4739268457777084
1.51625,1.4777529280960766,1.4739268457777084
1.5168750000000002,1.4777529280960766,1.4742595169867236
1.5175,1.4774142503739758,1.4742595169867236
1.5181250000000002,1.477075572651875,1.4742595169867236
1.51875,1.4767368949297741,1.474592188195739
1.5193750000000001,1.4763982172076733,1.474592188195739
1.52,1.4760595394855724,1.474592188195739
1.5206250000000001,1.4760595394855724,1.474592188195739
1.52125,1.4760595394855724,1.474592188195739
1.521875,1.4763982172076733,1.474592188195739
1.5225000000000002,1.4763982172076733,1.4742595169867236
1.523125,1.4767368949297741,1.4742595169867236
1.5237500000000002,1.477075572651875,1.4742595169867236
1.524375,1.4774142503739758,1.4739268457777084
1.5250000000000001,1.4774142503739758,1.4739268457777084
1.525625,1.4777529280960766,1.4739268457777084
1.52625,1.4780916058181774,1.4735941745686931
1.526875,1.4784302835402783,1.4732615033596779
1.5275,1.4787689612623791,1.4732615033596779
1.5281250000000002,1.47910763898448,1.4729288321506626
1.52875,1.4794463167065806,1.4729288321506626
1.5293750000000002,1.4801236721507822,1.4729288321506626
1.53,1.480462349872883,1.4725961609416474
1.5306250000000001,1.4808010275949839,1.4725961609416474
1.53125,1.4808010275949839,1.4725961609416474
1.531875,1.4808010275949839,1.4725961609416474
1.5325000000000002,1.4811397053170847,1.4725961609416474
1.533125,1.4808010275949839,1.4725961609416474
1.5337500000000002,1.4808010275949839,1.4725961609416474
1.534375,1.480462349872883,1.4725961609416474
1.5350000000000001,1.4801236721507822,1.4725961609416474
1.535625,1.4797849944286814,1.4725961609416474
1.5362500000000001,1.47910763898448,1.4725961609416474
1.536875,1.4787689612623791,1.4729288321506626
1.5375,1.4780916058181774,1.4729288321506626
1.5381250000000002,1.4777529280960766,1.4729288321506626
1.53875,1.4774142503739758,1.4729288321506626
1.5393750000000002,1.477075572651875,1.4729288321506626
1.54,1.4767368949297741,1.4729288321506626
1.5406250000000001,1.4763982172076733,1.4729288321506626
1.54125,1.4763982172076733,1.4729288321506626
1.541875,1.4767368949297741,1.4729288321506626
1.5425,1.4767368949297741,1.4729288321506626
1.543125,1.477075572651875,1.4729288321506626
1.5437500000000002,1.4774142503739758,1.4729288321506626
1.544375,1.4777529280960766,1.4729288321506626
1.5450000000000002,1.4780916058181774,1.4729288321506626
1.545625,1.4787689612623791,1.4725961609416474
1.5462500000000001,1.47910763898448,1.4725961609416474
1.546875,1.4797849944286814,1.4725961609416474
1.5475,1.4801236721507822,1.4725961609416474
1.5481250000000002,1.480462349872883,1.4725961609416474
1.54875,1.4808010275949839,1.472263489732632
1.5493750000000002,1.4811397053170847,1.472263489732632
1.55,1.4814783830391856,1.472263489732632
1.5506250000000001,1.4818170607612864,1.472263489732632
1.55125,1.4818170607612864,1.472263489732632
1.5518750000000001,1.4818170607612864,1.4719308185236168
1.5525,1.4818170607612864,1.4719308185236168
1.553125,1.4814783830391856,1.4719308185236168
1.5537500000000002,1.4814783830391856,1.4719308185236168
1.554375,1.4808010275949839,1.4719308185236168
1.5550000000000002,1.4808010275949839,1.4719308185236168
1.555625,1.480462349872883,1.472263489732632
1.5562500000000001,1.4801236721507822,1.472263489732632
1.556875,1.4794463167065806,1.472263489732632
1.5575,1.4787689612623791,1.4725961609416474
1.558125,1.4787689612623791,1.4725961609416474
1.55875,1.4784302835402783,1.4725961609416474
1.5593750000000002,1.4780916058181774,1.4725961609416474
1.56,1.4780916058181774,1.4725961609416474
1.5606250000000002,1.4777529280960766,1.4725961609416474
1.56125,1.4777529280960766,1.4729288321506626
1.5618750000000001,1.4777529280960766,1.4729288321506626
1.5625,1.4780916058181774,1.4729288321506626
1.563125,1.4780916058181774,1.4729288321506626
1.5637500000000002,1.4784302835402783,1.4729288321506626
1.564375,1.4784302835402783,1.4725961609416474
1.5650000000000002,1.4787689612623791,1.4725961609416474
1.565625,1.47910763898448,1.4725961609416474
1.5662500000000001,1.4794463167065806,1.472263489732632
1.566875,1.4801236721507822,1.472263489732632
1.5675000000000001,1.480462349872883,1.472263489732632
1.568125,1.4808010275949839,1.472263489732632
1.56875,1.4811397053170847,1.4719308185236168
1.5693750000000002,1.4811397053170847,1.4719308185236168
1.57,1.4814783830391856,1.4719308185236168
1.5706250000000002,1.4814783830391856,1.4719308185236168
1.57125,1.4814783830391856,1.4719308185236168
1.5718750000000001,1.4818170607612864,1.4719308185236168
1.5725,1.4814783830391856,1.4719308185236168
1.573125,1.4814783830391856,1.4719308185236168
1.57375,1.4811397053170847,1.4719308185236168
1.574375,1.4808010275949839,1.472263489732632
1.5750000000000002,1.4808010275949839,1.472263489732632
1.575625,1.4801236721507822,1.472263489732632
1.5762500000000002,1.4797849944286814,1.4725961609416474
1.576875,1.4794463167065806,1.4725961609416474
1.5775000000000001,1.47910763898448,1.4725961609416474
1.578125,1.4787689612623791,1.4725961609416474
1.57875,1.4780916058181774,1.4729288321506626
1.5793750000000002,1.4777529280960766,1.4729288321506626
1.58,1.4777529280960766,1.4729288321506626
1.5806250000000002,1.4774142503739758,1.4729288321506626
1.58125,1.4774142503739758,1.4729288321506626
1.5818750000000001,1.4774142503739758,1.4729288321506626
1.5825,1.4777529280960766,1.4729288321506626
1.5831250000000001,1.4777529280960766,1.4729288321506626
1.58375,1.4780916058181774,1.4729288321506626
1.584375,1.4784302835402783,1.4725961609416474
1.5850000000000002,1.4784302835402783,1.4725961609416474
1.585625,1.4787689612623791,1.4725961609416474
1.5862500000000002,1.4787689612623791,1.472263489732632
1.586875,1.47910763898448,1.4719308185236168
1.5875000000000001,1.4794463167065806,1.4719308185236168
1.588125,1.4797849944286814,1.4719308185236168
1.58875,1.480462349872883,1.4715981473146016
1.589375,1.4808010275949839,1.4715981473146016
1.59,1.4808010275949839,1.4715981473146016
1.5906250000000002,1.4811397053170847,1.4715981473146016
1.59125,1.4811397053170847,1.4715981473146016
1.5918750000000002,1.4814783830391856,1.4715981473146016
1.5925,1.4811397053170847,1.4715981473146016
1.5931250000000001,1.4808010275949839,1.4715981473146016
1.59375,1.4801236721507822,1.4715981473146016
1.594375,1.4797849944286814,1.4719308185236168
1.5950000000000002,1.47910763898448,1.4719308185236168
1.595625,1.4787689612623791,1.4719308185236168
1.5962500000000002,1.4780916058181774,1.472263489732632
1.596875,1.4774142503739758,1.472263489732632
1.5975000000000001,1.477075572651875,1.472263489732632
1.598125,1.4767368949297741,1.472263489732632
1.5987500000000001,1.4760595394855724,1.4725961609416474
1.599375,1.4760595394855724,1.4725961609416474
1.6,1.4760595394855724,1.4725961609416474
1.6006250000000002,1.4757208617634716,1.4725961609416474
1.60125,1.4757208617634716,1.4725961609416474
1.6018750000000002,1.4760595394855724,1.4725961609416474
1.6025,1.4760595394855724,1.4725961609416474
1.6031250000000001,1.4760595394855724,1.472263489732632
1.60375,1.4763982172076733,1.472263489732632
1.604375,1.4767368949297741,1.472263489732632
1.605,1.477075572651875,1.472263489732632
1.605625,1.4774142503739758,1.4719308185236168
1.6062500000000002,1.4777529280960766,1.4719308185236168
1.606875,1.4784302835402783,1.4719308185236168
1.6075000000000002,1.47910763898448,1.4719308185236168
1.608125,1.4794463167065806,1.4719308185236168
1.6087500000000001,1.4797849944286814,1.4715981473146016
1.609375,1.4801236721507822,1.4715981473146016
1.61,1.480462349872883,1.4715981473146016
1.6106250000000002,1.4808010275949839,1.4712654761055863
1.61125,1.4808010275949839,1.4712654761055863
1.6118750000000002,1.4808010275949839,1.4712654761055863
1.6125,1.4808010275949839,1.4712654761055863
1.6131250000000001,1.480462349872883,1.4712654761055863
1.61375,1.4801236721507822,1.4715981473146016
1.6143750000000001,1.4797849944286814,1.4715981473146016
1.615,1.4794463167065806,1.4715981473146016
1.615625,1.47910763898448,1.4715981473146016
1.6162500000000002,1.4787689612623791,1.4719308185236168
1.616875,1.4784302835402783,1.4719308185236168
1.6175000000000002,1.4780916058181774,1.4719308185236168
1.618125,1.4777529280960766,1.472263489732632
1.6187500000000001,1.4774142503739758,1.472263489732632
1.619375,1.477075572651875,1.472263489732632
1.62,1.477075572651875,1.472263489732632
1.620625,1.4767368949297741,1.472263489732632
1.62125,1.4763982172076733,1.4725961609416474
1.6218750000000002,1.4763982172076733,1.472263489732632
1.6225,1.4767368949297741,1.472263489732632
1.6231250000000002,1.4767368949297741,1.472263489732632
1.62375,1.477075572651875,1.472263489732632
1.6243750000000001,1.4774142503739758,1.472263489732632
1.625,1.4774142503739758,1.472263489732632
1.625625,1.4777529280960766,1.4719308185236168
1.6262500000000002,1.4784302835402783,1.4719308185236168
1.626875,1.4787689612623791,1.4719308185236168
1.6275000000000002,1.4794463167065806,1.4719308185236168
1.628125,1.4801236721507822,1.4719308185236168
1.6287500000000001,1.4808010275949839,1.4719308185236168
1.629375,1.4811397053170847,1.4715981473146016
1.6300000000000001,1.4814783830391856,1.4719308185236168
1.630625,1.4814783830391856,1.4715981473146016
1.63125,1.4814783830391856,1.4715981473146016
1.6318750000000002,1.4814783830391856,1.4715981473146016
1.6325,1.4814783830391856,1.4715981473146016
1.6331250000000002,1.4814783830391856,1.4715981473146016
1.63375,1.4811397053170847,1.4719308185236168
1.6343750000000001,1.4808010275949839,1.4719308185236168
1.635,1.480462349872883,1.4719308185236168
1.635625,1.4801236721507822,1.472263489732632
1.63625,1.4797849944286814,1.4725961609416474
1.636875,1.4794463167065806,1.4725961609416474
1.6375000000000002,1.4787689612623791,1.4725961609416474
1.638125,1.4784302835402783,1.4729288321506626
1.6387500000000002,1.4780916058181774,1.4729288321506626
1.639375,1.4780916058181774,1.4732615033596779
1.6400000000000001,1.4777529280960766,1.4729288321506626
1.640625,1.4774142503739758,1.4732615033596779
1.64125,1.4774142503739758,1.4732615033596779
1.6418750000000002,1.4774142503739758,1.4732615033596779
1.6425,1.4777529280960766,1.4732615033596779
1.6431250000000002,1.4777529280960766,1.4732615033596779
1.64375,1.4780916058181774,1.4732615033596779
1.6443750000000001,1.4784302835402783,1.4729288321506626
1.645,1.47910763898448,1.4729288321506626
1.6456250000000001,1.4794463167065806,1.4729288321506626
1.64625,1.4797849944286814,1.4725961609416474
1.646875,1.4801236721507822,1.4725961609416474
1.6475000000000002,1.4808010275949839,1.4725961609416474
1.648125,1.4811397053170847,1.472263489732632
1.6487500000000002,1.4811397053170847,1.472263489732632
1.649375,1.4814783830391856,1.472263489732632
1.6500000000000001,1.4818170607612864,1.4719308185236168
1.650625,1.4818170607612864,1.4719308185236168
1.65125,1.4818170607612864,1.4719308185236168
1.651875,1.4818170607612864,1.4719308185236168
1.6525,1.4818170607612864,1.4719308185236168
1.6531250000000002,1.4818170607612864,1.472263489732632
1.65375,1.4814783830391856,1.472263489732632
1.6543750000000002,1.4808010275949839,1.472263489732632
1.655,1.480462349872883,1.472263489732632
1.6556250000000001,1.4801236721507822,1.472263489732632
1.65625,1.4797849944286814,1.4725961609416474
1.656875,1.47910763898448,1.4725961609416474
1.6575000000000002,1.4787689612623791,1.4725961609416474
1.658125,1.4784302835402783,1.4729288321506626
1.6587500000000002,1.4780916058181774,1.4729288321506626
1.659375,1.4777529280960766,1.4729288321506626
1.6600000000000001,1.4774142503739758,1.4729288321506626
1.660625,1.477075572651875,1.4729288321506626
1.6612500000000001,1.477075572651875,1.4732615033596779
1.661875,1.4774142503739758,1.4732615033596779
1.6625,1.4774142503739758,1.4732615033596779
1.6631250000000002,1.4777529280960766,1.4732615033596779
1.66375,1.4780916058181774,1.4732615033596779
1.6643750000000002,1.4784302835402783,1.4732615033596779
1.665,1.4787689612623791,1.4732615033596779
1.6656250000000001,1.47910763898448,1.4732615033596779
1.66625,1.4797849944286814,1.4732615033596779
1.666875,1.4801236721507822,1.4729288321506626
1.6675,1.480462349872883,1.4729288321506626
1.668125,1.4808010275949839,1.4729288321506626
1.6687500000000002,1.4811397053170847,1.4725961609416474
1.669375,1.4814783830391856,1.4725961609416474
1.6700000000000002,1.4814783830391856,1.4725961609416474
1.670625,1.4814783830391856,1.4725961609416474
1.6712500000000001,1.4814783830391856,1.472263489732632
1.671875,1.4814783830391856,1.472263489732632
1.6725,1.4814783830391856,1.472263489732632
1.6731250000000002,1.4814783830391856,1.4725961609416474
1.67375,1.4814783830391856,1.472263489732632
1.6743750000000002,1.4808010275949839,1.4725961609416474
1.675,1.480462349872883,1.4725961609416474
1.6756250000000001,1.4801236721507822,1.4725961609416474
1.67625,1.4797849944286814,1.4725961609416474
1.6768750000000001,1.47910763898448,1.4729288321506626
1.6775,1.4787689612623791,1.4729288321506626
1.678125,1.4784302835402783,1.4725961609416474
1.6787500000000002,1.4777529280960766,1.4729288321506626
1.679375,1.4774142503739758,1.4729288321506626
1.6800000000000002,1.477075572651875,1.4729288321506626
1.680625,1.4767368949297741,1.4729288321506626
1.6812500000000001,1.4767368949297741,1.4729288321506626
1.681875,1.4763982172076733,1.4729288321506626
1.6825,1.4763982172076733,1.4725961609416474
1.683125,1.4767368949297741,1.4725961609416474
1.68375,1.4767368949297741,1.4725961609416474
1.6843750000000002,1.4767368949297741,1.472263489732632
1.685,1.4774142503739758,1.472263489732632
1.6856250000000002,1.4780916058181774,1.472263489732632
1.68625,1.4784302835402783,1.472263489732632
1.6868750000000001,1.47910763898448,1.472263489732632
1.6875,1.4797849944286814,1.4719308185236168
1.688125,1.4801236721507822,1.4719308185236168
1.6887500000000002,1.480462349872883,1.4719308185236168
1.689375,1.4808010275949839,1.4719308185236168
1.6900000000000002,1.4808010275949839,1.4719308185236168
1.690625,1.4811397053170847,1.4719308185236168
1.6912500000000001,1.4811397053170847,1.4719308185236168
1.691875,1.4808010275949839,1.4719308185236168
1.6925000000000001,1.4808010275949839,1.4715981473146016
1.693125,1.480462349872883,1.4715981473146016
1.69375,1.4797849944286814,1.4715981473146016
1.6943750000000002,1.4794463167065806,1.4719308185236168
1.695,1.47910763898448,1.4715981473146016
1.6956250000000002,1.4787689612623791,1.4719308185236168
1.69625,1.4784302835402783,1.472263489732632
1.6968750000000001,1.4780916058181774,1.472263489732632
1.6975,1.4774142503739758,1.472263489732632
1.698125,1.477075572651875,1.472263489732632
1.69875,1.4767368949297741,1.4725961609416474
1.699375,1.4763982172076733,1.4725961609416474
1.7000000000000002,1.4763982172076733,1.4725961609416474
1.700625,1.4760595394855724,1.4725961609416474
1.7012500000000002,1.4760595394855724,1.4725961609416474
1.701875,1.4760595394855724,1.4725961609416474
1.7025000000000001,1.4760595394855724,1.4725961609416474
1.703125,1.4763982172076733,1.4725961609416474
1.70375,1.4763982172076733,1.4725961609416474
1.7043750000000002,1.477075572651875,1.472263489732632
1.705,1.477075572651875,1.472263489732632
1.7056250000000002,1.4777529280960766,1.472263489732632
1.70625,1.4780916058181774,1.472263489732632
1.7068750000000001,1.4784302835402783,1.4719308185236168
1.7075,1.4784302835402783,1.4719308185236168
1.7081250000000001,1.4787689612623791,1.4719308185236168
1.70875,1.47910763898448,1.4715981473146016
1.709375,1.47910763898448,1.4715981473146016
1.7100000000000002,1.47910763898448,1.4715981473146016
1.710625,1.4794463167065806,1.4715981473146016
1.7112500000000002,1.47910763898448,1.4715981473146016
1.711875,1.4794463167065806,1.4715981473146016
1.7125000000000001,1.4794463167065806,1.4715981473146016
1.713125,1.4794463167065806,1.4715981473146016
1.71375,1.47910763898448,1.4719308185236168
1.714375,1.47910763898448,1.4719308185236168
1.715,1.47910763898448,1.4719308185236168
1.7156250000000002,1.4787689612623791,1.472263489732632
1.71625,1.4784302835402783,1.472263489732632
1.7168750000000002,1.4780916058181774,1.4725961609416474
1.7175,1.4774142503739758,1.4729288321506626
1.7181250000000001,1.4774142503739758,1.4729288321506626
1.71875,1.477075572651875,1.4732615033596779
1.719375,1.4767368949297741,1.4732615033596779
1.7200000000000002,1.4763982172076733,1.4732615033596779
1.720625,1.4763982172076733,1.4735941745686931
1.7212500000000002,1.4760595394855724,1.4735941745686931
1.721875,1.4760595394855724,1.4732615033596779
1.7225000000000001,1.4763982172076733,1.4732615033596779
1.723125,1.4767368949297741,1.4732615033596779
1.7237500000000001,1.477075572651875,1.4732615033596779
1.724375,1.4774142503739758,1.4732615033596779
1.725,1.4780916058181774,1.4735941745686931
1.7256250000000002,1.4787689612623791,1.4732615033596779
1.72625,1.47910763898448,1.4732615033596779
1.7268750000000002,1.4794463167065806,1.4732615033596779
1.7275,1.4801236721507822,1.4732615033596779
1.7281250000000001,1.480462349872883,1.4732615033596779
1.72875,1.4808010275949839,1.4729288321506626
1.729375,1.4811397053170847,1.4729288321506626
1.73,1.4814783830391856,1.4729288321506626
1.730625,1.4814783830391856,1.4729288321506626
1.7312500000000002,1.4818170607612864,1.4729288321506626
1.731875,1.4814783830391856,1.4729288321506626
1.7325000000000002,1.4814783830391856,1.4729288321506626
1.733125,1.4814783830391856,1.4729288321506626
1.7337500000000001,1.4811397053170847,1.4729288321506626
1.734375,1.480462349872883,1.4729288321506626
1.735,1.4801236721507822,1.4729288321506626
1.7356250000000002,1.4794463167065806,1.4729288321506626
1.73625,1.47910763898448,1.4729288321506626
1.7368750000000002,1.4784302835402783,1.4732615033596779
1.7375,1.4784302835402783,1.4732615033596779
1.7381250000000001,1.4780916058181774,1.4732615033596779
1.73875,1.4777529280960766,1.4735941745686931
1.7393750000000001,1.4777529280960766,1.4739268457777084
1.74,1.4774142503739758,1.4739268457777084
1.740625,1.4774142503739758,1.4739268457777084
1.7412500000000002,1.4774142503739758,1.4742595169867236
1.741875,1.4774142503739758,1.4742595169867236
1.7425000000000002,1.4774142503739758,1.4742595169867236
1.743125,1.4774142503739758,1.4739268457777084
1.7437500000000001,1.4777529280960766,1.4739268457777084
1.744375,1.4784302835402783,1.4739268457777084
1.745,1.4784302835402783,1.4739268457777084
1.745625,1.4787689612623791,1.4739268457777084
1.74625,1.47910763898448,1.4739268457777084
1.7468750000000002,1.4797849944286814,1.4739268457777084
1.7475,1.4797849944286814,1.4735941745686931
1.7481250000000002,1.4801236721507822,1.4735941745686931
1.74875,1.480462349872883,1.4732615033596779
1.7493750000000001,1.4808010275949839,1.4732615033596779
1.75,1.4811397053170847,1.4732615033596779
1.750625,1.4811397053170847,1.4729288321506626
1.7512500000000002,1.4811397053170847,1.4729288321506626
1.751875,1.4811397053170847,1.4729288321506626
1.7525000000000002,1.4811397053170847,1.4732615033596779
1.753125,1.4808010275949839,1.4729288321506626
1.7537500000000001,1.480462349872883,1.4729288321506626
1.754375,1.4801236721507822,1.4732615033596779
1.7550000000000001,1.4797849944286814,1.4732615033596779
1.755625,1.47910763898448,1.4732615033596779
1.75625,1.4787689612623791,1.4735941745686931
1.7568750000000002,1.4784302835402783,1.4735941745686931
1.7575,1.4777529280960766,1.4735941745686931
1.7581250000000002,1.477075572651875,1.4735941745686931
1.75875,1.4767368949297741,1.4739268457777084
1.7593750000000001,1.4760595394855724,1.4735941745686931
1.76,1.4760595394855724,1.4735941745686931
1.760625,1.4757208617634716,1.4735941745686931
1.76125,1.4757208617634716,1.4735941745686931
1.761875,1.4757208617634716,1.4735941745686931
1.7625000000000002,1.4757208617634716,1.4735941745686931
1.763125,1.4757208617634716,1.4735941745686931
1.7637500000000002,1.4760595394855724,1.4735941745686931
1.764375,1.4767368949297741,1.4735941745686931
1.7650000000000001,1.4774142503739758,1.4735941745686931
1.765625,1.4780916058181774,1.4735941745686931
1.76625,1.4784302835402783,1.4732615033596779
1.7668750000000002,1.47910763898448,1.4732615033596779
1.7675,1.4794463167065806,1.4729288321506626
1.7681250000000002,1.4794463167065806,1.4729288321506626
1.76875,1.4801236721507822,1.4729288321506626
1.7693750000000001,1.480462349872883,1.4725961609416474
1.77,1.480462349872883,1.4725961609416474
1.7706250000000001,1.4808010275949839,1.4725961609416474
1.77125,1.480462349872883,1.472263489732632
1.771875,1.480462349872883,1.472263489732632
1.7725000000000002,1.4801236721507822,1.472263489732632
1.773125,1.4801236721507822,1.472263489732632
1.7737500000000002,1.4794463167065806,1.4719308185236168
1.774375,1.47910763898448,1.472263489732632
1.7750000000000001,1.4787689612623791,1.4719308185236168
1.775625,1.4784302835402783,1.472263489732632
1.77625,1.4777529280960766,1.472263489732632
1.776875,1.477075572651875,1.472263489732632
1.7775,1.4767368949297741,1.472263489732632
1.7781250000000002,1.4763982172076733,1.472263489732632
1.77875,1.4760595394855724,1.472263489732632
1.7793750000000002,1.4757208617634716,1.472263489732632
1.78,1.4757208617634716,1.472263489732632
1.7806250000000001,1.4753821840413708,1.472263489732632
1.78125,1.4753821840413708,1.472263489732632
1.781875,1.4757208617634716,1.472263489732632
1.7825000000000002,1.4757208617634716,1.472263489732632
1.783125,1.4760595394855724,1.4719308185236168
1.7837500000000002,1.4763982172076733,1.4719308185236168
1.784375,1.4763982172076733,1.4719308185236168
1.7850000000000001,1.4767368949297741,1.4719308185236168
1.785625,1.477075572651875,1.4715981473146016
1.7862500000000001,1.4774142503739758,1.4715981473146016
1.786875,1.4777529280960766,1.4712654761055863
1.7875,1.4777529280960766,1.470932804896571
1.7881250000000002,1.4780916058181774,1.470932804896571
1.78875,1.4784302835402783,1.470600133687556
1.7893750000000002,1.4784302835402783,1.4702674624785408
1.79,1.4787689612623791,1.4702674624785408
1.7906250000000001,1.4787689612623791,1.4702674624785408
1.79125,1.47910763898448,1.4702674624785408
1.791875,1.47910763898448,1.4702674624785408
1.7925,1.4787689612623791,1.4702674624785408
1.793125,1.4787689612623791,1.4699347912695255
1.7937500000000002,1.4787689612623791,1.4699347912695255
1.794375,1.4784302835402783,1.4702674624785408
1.7950000000000002,1.4780916058181774,1.4702674624785408
1.795625,1.4777529280960766,1.4702674624785408
1.7962500000000001,1.477075572651875,1.4702674624785408
1.796875,1.4767368949297741,1.4702674624785408
1.7975,1.4763982172076733,1.4702674624785408
1.7981250000000002,1.4760595394855724,1.470600133687556
1.79875,1.4753821840413708,1.470600133687556
1.7993750000000002,1.4753821840413708,1.470600133687556
1.8,1.47504350631927,1.470600133687556
1.8006250000000001,1.4747048285971691,1.470600133687556
1.80125,1.4747048285971691,1.470600133687556
1.8018750000000001,1.4747048285971691,1.4702674624785408
1.8025,1.4747048285971691,1.4702674624785408
1.803125,1.4747048285971691,1.4702674624785408
1.8037500000000002,1.47504350631927,1.4702674624785408
1.804375,1.47504350631927,1.4699347912695255
1.8050000000000002,1.4753821840413708,1.4699347912695255
1.805625,1.4760595394855724,1.4696021200605103
1.8062500000000001,1.4767368949297741,1.469269448851495
1.806875,1.4774142503739758,1.469269448851495
1.8075,1.4780916058181774,1.469269448851495
1.808125,1.4784302835402783,1.4689367776424798
1.80875,1.4787689612623791,1.4689367776424798
1.8093750000000002,1.47910763898448,1.4689367776424798
1.81,1.4794463167065806,1.4686041064334645
1.8106250000000002,1.4797849944286814,1.4686041064334645
1.81125,1.4797849944286814,1.4686041064334645
1.8118750000000001,1.4797849944286814,1.4686041064334645
1.8125,1.4797849944286814,1.4686041064334645
1.813125,1.4797849944286814,1.4686041064334645
1.8137500000000002,1.4794463167065806,1.4686041064334645
1.814375,1.47910763898448,1.4689367776424798
1.8150000000000002,1.4787689612623791,1.4689367776424798
1.815625,1.4784302835402783,1.4689367776424798
1.8162500000000001,1.4777529280960766,1.469269448851495
1.816875,1.4774142503739758,1.469269448851495
1.8175000000000001,1.477075572651875,1.4696021200605103
1.818125,1.4767368949297741,1.4696021200605103
1.81875,1.4763982172076733,1.4696021200605103
1.8193750000000002,1.4760595394855724,1.4699347912695255
1.82,1.4757208617634716,1.4699347912695255
1.8206250000000002,1.4757208617634716,1.4699347912695255
1.82125,1.4757208617634716,1.4699347912695255
1.8218750000000001,1.4757208617634716,1.4699347912695255
1.8225,1.4757208617634716,1.4699347912695255
1.823125,1.4760595394855724,1.4699347912695255
1.82375,1.4760595394855724,1.4699347912695255
1.824375,1.4760595394855724,1.4696021200605103
1.8250000000000002,1.4763982172076733,1.4696021200605103
1.825625,1.4767368949297741,1.469269448851495
1.8262500000000002,1.477075572651875,1.469269448851495
1.826875,1.4774142503739758,1.469269448851495
1.8275000000000001,1.4777529280960766,1.4689367776424798
1.828125,1.4780916058181774,1.4689367776424798
1.82875,1.4784302835402783,1.4686041064334645
1.8293750000000002,1.4787689612623791,1.4686041064334645
1.83,1.4787689612623791,1.4682714352244493
1.8306250000000002,1.4787689612623791,1.4682714352244493
1.83125,1.4787689612623791,1.467938764015434
1.8318750000000001,1.4787689612623791,1.4682714352244493
1.8325,1.4787689612623791,1.467938764015434
1.8331250000000001,1.4787689612623791,1.467938764015434
1.83375,1.4784302835402783,1.467938764015434
1.834375,1.4777529280960766,1.467938764015434
1.8350000000000002,1.4774142503739758,1.467938764015434
1.835625,1.477075572651875,1.467938764015434
1.8362500000000002,1.4767368949297741,1.4682714352244493
1.836875,1.4763982172076733,1.4682714352244493
1.8375000000000001,1.4763982172076733,1.4682714352244493
1.838125,1.4760595394855724,1.4682714352244493
1.83875,1.4757208617634716,1.4682714352244493
1.839375,1.4757208617634716,1.4682714352244493
1.84,1.4757208617634716,1.4682714352244493
1.8406250000000002,1.4757208617634716,1.4682714352244493
1.84125,1.4753821840413708,1.4682714352244493
1.8418750000000002,1.4757208617634716,1.4682714352244493
1.8425,1.4760595394855724,1.4682714352244493
1.8431250000000001,1.4760595394855724,1.4682714352244493
1.84375,1.4763982172076733,1.467938764015434
1.844375,1.477075572651875,1.467938764015434
1.8450000000000002,1.4774142503739758,1.467938764015434
1.845625,1.4777529280960766,1.4676060928064187
1.8462500000000002,1.4784302835402783,1.4676060928064187
1.846875,1.4787689612623791,1.4672734215974035
1.8475000000000001,1.47910763898448,1.4669407503883882
1.848125,1.4794463167065806,1.4669407503883882
1.8487500000000001,1.4797849944286814,1.4669407503883882
1.849375,1.4801236721507822,1.466608079179373
1.85,1.4801236721507822,1.466608079179373
1.8506250000000002,1.4801236721507822,1.466608079179373
1.85125,1.4801236721507822,1.4662754079703577
1.8518750000000002,1.4801236721507822,1.4662754079703577
1.8525,1.4797849944286814,1.4659427367613425
1.8531250000000001,1.4794463167065806,1.4659427367613425
1.85375,1.47910763898448,1.4659427367613425
1.854375,1.4787689612623791,1.4659427367613425
1.855,1.4780916058181774,1.4659427367613425
1.855625,1.4777529280960766,1.4659427367613425
1.8562500000000002,1.4777529280960766,1.4659427367613425
1.856875,1.4774142503739758,1.4662754079703577
1.8575000000000002,1.477075572651875,1.4662754079703577
1.858125,1.477075572651875,1.4662754079703577
1.8587500000000001,1.4767368949297741,1.4662754079703577
1.859375,1.4763982172076733,1.466608079179373
1.86,1.4763982172076733,1.4662754079703577
1.8606250000000002,1.4760595394855724,1.466608079179373
1.86125,1.4760595394855724,1.466608079179373
1.8618750000000002,1.4763982172076733,1.466608079179373
1.8625,1.4763982172076733,1.466608079179373
1.8631250000000001,1.4767368949297741,1.4662754079703577
1.86375,1.477075572651875,1.4662754079703577
1.8643750000000001,1.4777529280960766,1.4662754079703577
1.865,1.4780916058181774,1.4662754079703577
1.865625,1.4784302835402783,1.4659427367613425
1.8662500000000002,1.4787689612623791,1.4659427367613425
1.866875,1.4794463167065806,1.4656100655523274
1.8675000000000002,1.4797849944286814,1.4656100655523274
1.868125,1.4801236721507822,1.4656100655523274
1.8687500000000001,1.480462349872883,1.4656100655523274
1.869375,1.4808010275949839,1.4652773943433122
1.87,1.4811397053170847,1.4652773943433122
1.870625,1.4811397053170847,1.4652773943433122
1.87125,1.4814783830391856,1.4652773943433122
1.8718750000000002,1.4811397053170847,1.4652773943433122
1.8725,1.4811397053170847,1.464944723134297
1.8731250000000002,1.4808010275949839,1.464944723134297
1.87375,1.480462349872883,1.464944723134297
1.8743750000000001,1.4797849944286814,1.464944723134297
1.875,1.4794463167065806,1.464944723134297
1.875625,1.4787689612623791,1.464944723134297
1.8762500000000002,1.4780916058181774,1.4652773943433122
1.876875,1.4774142503739758,1.4652773943433122
1.8775000000000002,1.477075572651875,1.4652773943433122
1.878125,1.4763982172076733,1.4652773943433122
1.8787500000000001,1.4757208617634716,1.4652773943433122
1.879375,1.4753821840413708,1.4652773943433122
1.8800000000000001,1.4753821840413708,1.4656100655523274
1.880625,1.47504350631927,1.4656100655523274
1.88125,1.4753821840413708,1.4659427367613425
1.8818750000000002,1.4753821840413708,1.4659427367613425
1.8825,1.4757208617634716,1.4659427367613425
1.8831250000000002,1.4760595394855724,1.4659427367613425
1.88375,1.4763982172076733,1.4659427367613425
1.8843750000000001,1.4767368949297741,1.4656100655523274
1.885,1.4774142503739758,1.4656100655523274
1.885625,1.4777529280960766,1.4652773943433122
1.88625,1.4780916058181774,1.4652773943433122
1.886875,1.4787689612623791,1.464944723134297
1.8875000000000002,1.47910763898448,1.464944723134297
1.888125,1.4794463167065806,1.464944723134297
1.8887500000000002,1.4797849944286814,1.4646120519252817
1.889375,1.4801236721507822,1.4646120519252817
1.8900000000000001,1.480462349872883,1.4646120519252817
1.890625,1.4808010275949839,1.4642793807162664
1.89125,1.4808010275949839,1.4642793807162664
1.8918750000000002,1.480462349872883,1.4642793807162664
1.8925,1.480462349872883,1.4642793807162664
1.8931250000000002,1.4801236721507822,1.4642793807162664
1.89375,1.4797849944286814,1.4642793807162664
1.8943750000000001,1.4794463167065806,1.4642793807162664
1.895,1.47910763898448,1.4642793807162664
1.8956250000000001,1.4784302835402783,1.4642793807162664
1.89625,1.4780916058181774,1.4646120519252817
1.896875,1.4777529280960766,1.4646120519252817
1.8975000000000002,1.4774142503739758,1.4646120519252817
1.898125,1.477075572651875,1.4646120519252817
1.8987500000000002,1.4767368949297741,1.464944723134297
1.899375,1.4763982172076733,1.464944723134297
1.9000000000000001,1.4763982172076733,1.464944723134297
1.900625,1.4760595394855724,1.464944723134297
1.90125,1.4760595394855724,1.464944723134297
1.901875,1.4760595394855724,1.464944723134297
1.9025,1.4760595394855724,1.464944723134297
1.9031250000000002,1.4763982172076733,1.4646120519252817
1.90375,1.4767368949297741,1.4646120519252817
1.9043750000000002,1.477075572651875,1.4642793807162664
1.905,1.4774142503739758,1.4642793807162664
1.9056250000000001,1.4777529280960766,1.4642793807162664
1.90625,1.4780916058181774,1.4642793807162664
1.906875,1.4784302835402783,1.4639467095072511
1.9075000000000002,1.4787689612623791,1.4636140382982359
1.908125,1.47910763898448,1.4636140382982359
1.9087500000000002,1.4794463167065806,1.4636140382982359
1.909375,1.4797849944286814,1.4636140382982359
1.9100000000000001,1.480462349872883,1.4632813670892206
1.910625,1.4808010275949839,1.4636140382982359
1.9112500000000001,1.4808010275949839,1.4636140382982359
1.911875,1.4808010275949839,1.4636140382982359
1.9125,1.4808010275949839,1.4636140382982359
1.9131250000000002,1.4808010275949839,1.4636140382982359
1.91375,1.480462349872883,1.4636140382982359
1.9143750000000002,1.4801236721507822,1.4639467095072511
1.915,1.4797849944286814,1.4636140382982359
1.9156250000000001,1.4794463167065806,1.4639467095072511
1.91625,1.4787689612623791,1.4642793807162664
1.916875,1.4784302835402783,1.4642793807162664
1.9175,1.4780916058181774,1.4646120519252817
1.918125,1.4777529280960766,1.4646120519252817
1.9187500000000002,1.477075572651875,1.464944723134297
1.919375,1.4767368949297741,1.464944723134297
1.9200000000000002,1.4763982172076733,1.464944723134297
1.920625,1.4760595394855724,1.464944723134297
1.9212500000000001,1.4760595394855724,1.4652773943433122
1.921875,1.4760595394855724,1.4652773943433122
1.9225,1.4760595394855724,1.4652773943433122
1.9231250000000002,1.4763982172076733,1.4652773943433122
1.92375,1.4767368949297741,1.4652773943433122
1.9243750000000002,1.477075572651875,1.4652773943433122
1.925,1.4774142503739758,1.4652773943433122
1.9256250000000001,1.4777529280960766,1.464944723134297
1.92625,1.4784302835402783,1.464944723134297
1.9268750000000001,1.47910763898448,1.464944723134297
1.9275,1.4794463167065806,1.464944723134297
1.928125,1.4797849944286814,1.4646120519252817
1.9287500000000002,1.4801236721507822,1.4646120519252817
1.929375,1.480462349872883,1.4646120519252817
1.9300000000000002,1.4808010275949839,1.4646120519252817
1.930625,1.4811397053170847,1.4646120519252817
1.9312500000000001,1.4811397053170847,1.4646120519252817
1.931875,1.4811397053170847,1.4646120519252817
1.9325,1.4811397053170847,1.4646120519252817
1.933125,1.4808010275949839,1.4646120519252817
1.93375,1.480462349872883,1.4646120519252817
1.9343750000000002,1.4801236721507822,1.464944723134297
1.935,1.4797849944286814,1.464944723134297
1.9356250000000002,1.4794463167065806,1.4652773943433122
1.93625,1.47910763898448,1.4652773943433122
1.9368750000000001,1.4784302835402783,1.4652773943433122
1.9375,1.4780916058181774,1.4656100655523274
1.938125,1.4777529280960766,1.4656100655523274
1.9387500000000002,1.4774142503739758,1.4659427367613425
1.939375,1.477075572651875,1.4659427367613425
1.9400000000000002,1.477075572651875,1.4659427367613425
1.940625,1.477075572651875,1.4662754079703577
1.9412500000000001,1.4767368949297741,1.4662754079703577
1.941875,1.477075572651875,1.4662754079703577
1.9425000000000001,1.477075572651875,1.466608079179373
1.943125,1.477075572651875,1.4662754079703577
1.94375,1.4774142503739758,1.4662754079703577
1.9443750000000002,1.4777529280960766,1.4662754079703577
1.945,1.4780916058181774,1.4662754079703577
1.9456250000000002,1.4784302835402783,1.4662754079703577
1.94625,1.4787689612623791,1.4662754079703577
1.9468750000000001,1.47910763898448,1.4662754079703577
1.9475,1.4794463167065806,1.4659427367613425
1.948125,1.4794463167065806,1.4659427367613425
1.94875,1.4797849944286814,1.4659427367613425
1.949375,1.4801236721507822,1.4656100655523274
1.9500000000000002,1.4801236721507822,1.4656100655523274
1.950625,1.480462349872883,1.4656100655523274
1.9512500000000002,1.480462349872883,1.4656100655523274
1.951875,1.480462349872883,1.4656100655523274
1.9525000000000001,1.480462349872883,1.4656100655523274
1.953125,1.4801236721507822,1.4656100655523274
1.95375,1.4794463167065806,1.4656100655523274
1.9543750000000002,1.47910763898448,1.4659427367613425
1.955,1.4784302835402783,1.4659427367613425
1.9556250000000002,1.4777529280960766,1.4659427367613425
1.95625,1.4774142503739758,1.4659427367613425
1.9568750000000001,1.477075572651875,1.4662754079703577
1.9575,1.4767368949297741,1.4662754079703577
1.9581250000000001,1.4763982172076733,1.4662754079703577
1.95875,1.4760595394855724,1.466608079179373
1.959375,1.4757208617634716,1.466608079179373
1.9600000000000002,1.4753821840413708,1.466608079179373
1.960625,1.47504350631927,1.466608079179373
1.9612500000000002,1.47504350631927,1.466608079179373
1.961875,1.4753821840413708,1.466608079179373
1.9625000000000001,1.4757208617634716,1.466608079179373
1.963125,1.4757208617634716,1.466608079179373
1.96375,1.4760595394855724,1.466608079179373
1.964375,1.4763982172076733,1.4662754079703577
1.965,1.4767368949297741,1.4662754079703577
1.9656250000000002,1.4774142503739758,1.4662754079703577
1.96625,1.4777529280960766,1.4662754079703577
1.9668750000000002,1.4784302835402783,1.4659427367613425
1.9675,1.4787689612623791,1.4659427367613425
1.9681250000000001,1.4794463167065806,1.4659427367613425
1.96875,1.4797849944286814,1.4659427367613425
1.969375,1.4801236721507822,1.4659427367613425
1.9700000000000002,1.480462349872883,1.4659427367613425
1.970625,1.4808010275949839,1.4659427367613425
1.9712500000000002,1.4811397053170847,1.4659427367613425
1.971875,1.4811397053170847,1.4659427367613425
1.9725000000000001,1.4811397053170847,1.4659427367613425
1.973125,1.4808010275949839,1.4659427367613425
1.9737500000000001,1.4808010275949839,1.4662754079703577
1.974375,1.4801236721507824,1.4662754079703577
1.975,1.4797849944286814,1.4662754079703577
1.9756250000000002,1.4794463167065806,1.4662754079703577
1.97625,1.47910763898448,1.466608079179373
1.9768750000000002,1.4787689612623791,1.4669407503883882
1.9775,1.4784302835402783,1.4669407503883882
1.9781250000000001,1.4777529280960766,1.4669407503883882
1.97875,1.4774142503739758,1.4672734215974035
1.979375,1.477075572651875,1.4672734215974035
1.98,1.4767368949297741,1.4672734215974035
1.980625,1.4767368949297741,1.4676060928064187
1.9812500000000002,1.4763982172076733,1.4676060928064187
1.981875,1.4763982172076733,1.4676060928064187
1.9825000000000002,1.4767368949297741,1.4676060928064187
1.983125,1.477075572651875,1.4676060928064187
1.9837500000000001,1.4774142503739758,1.4676060928064187
1.984375,1.4780916058181772,1.4672734215974035
1.985,1.4784302835402783,1.4672734215974035
1.9856250000000002,1.4787689612623791,1.4672734215974035
1.98625,1.47910763898448,1.4672734215974035
1.9868750000000002,1.4797849944286814,1.4672734215974035
1.9875,1.4801236721507822,1.4672734215974035
1.9881250000000001,1.480462349872883,1.4672734215974035
1.98875,1.4808010275949839,1.4669407503883882
1.9893750000000001,1.4811397053170847,1.4669407503883882
1.99,1.4814783830391856,1.4669407503883882
1.990625,1.4814783830391856,1.4669407503883882
1.9912500000000002,1.4814783830391856,1.466608079179373
1.991875,1.4814783830391856,1.466608079179373
1.9925000000000002,1.4811397053170847,1.466608079179373
1.993125,1.4811397053170847,1.466608079179373
1.9937500000000001,1.480462349872883,1.466608079179373
1.994375,1.4801236721507822,1.4669407503883882
1.995,1.4797849944286814,1.4669407503883882
1.995625,1.4791076389844802,1.4672734215974035
1.99625,1.47910763898448,1.4672734215974035
1.9968750000000002,1.4787689612623791,1.4676060928064187
1.9975,1.4784302835402783,1.4676060928064187
1.9981250000000002,1.4780916058181774,1.4676060928064187
1.99875,1.4777529280960766,1.4676060928064187
1.9993750000000001,1.4774142503739758,1.467938764015434
2,1.4774142503739758,1.467938764015434
2.0006250000000003,1.477075572651875,1.4679387640154342
2.00125,1.477075572651875,1.4682714352244493
2.001875,1.4774142503739758,1.4682714352244493
2.0025000000000004,1.477414250373976,1.4682714352244493
2.003125,1.4777529280960764,1.4682714352244493
2.00375,1.4780916058181774,1.4682714352244493
2.004375,1.4784302835402783,1.467938764015434
2.005,1.4787689612623791,1.467938764015434
2.005625,1.4791076389844802,1.467938764015434
2.00625,1.4797849944286814,1.467938764015434
2.006875,1.4801236721507822,1.467938764015434
2.0075000000000003,1.480462349872883,1.467938764015434
2.008125,1.4808010275949839,1.467938764015434
2.00875,1.4811397053170847,1.467938764015434
2.0093750000000004,1.4814783830391858,1.467938764015434
2.01,1.4818170607612862,1.467938764015434
2.010625,1.4821557384833872,1.467938764015434
2.01125,1.482494416205488,1.467938764015434
2.011875,1.4821557384833874,1.467938764015434
2.0125,1.4821557384833872,1.467938764015434
2.013125,1.4821557384833872,1.467938764015434
2.01375,1.4818170607612864,1.4682714352244493
2.0143750000000002,1.4814783830391856,1.4682714352244493
2.015,1.4811397053170847,1.4682714352244493
2.015625,1.4808010275949839,1.4686041064334645
2.0162500000000003,1.4804623498728828,1.4689367776424798
2.016875,1.4797849944286814,1.4689367776424798
2.0175,1.4794463167065806,1.4689367776424798
2.0181250000000004,1.4791076389844797,1.469269448851495
2.01875,1.4787689612623793,1.469269448851495
2.019375,1.4784302835402783,1.4696021200605103
2.02,1.4780916058181774,1.469269448851495
2.020625,1.4777529280960766,1.4696021200605103
2.02125,1.4777529280960766,1.4696021200605103
2.021875,1.4777529280960766,1.4699347912695255
2.0225,1.4777529280960766,1.4699347912695255
2.0231250000000003,1.4780916058181774,1.4699347912695255
2.02375,1.4784302835402783,1.4699347912695255
2.024375,1.4787689612623791,1.4696021200605103
2.0250000000000004,1.4787689612623793,1.4699347912695255
2.025625,1.4791076389844797,1.4699347912695255
2.02625,1.4797849944286814,1.4699347912695255
2.026875,1.4801236721507822,1.4699347912695255
2.0275,1.4801236721507822,1.4696021200605105
2.028125,1.480462349872883,1.4696021200605103
2.02875,1.4808010275949839,1.4696021200605103
2.029375,1.4811397053170847,1.469269448851495
2.0300000000000002,1.4811397053170847,1.469269448851495
2.030625,1.4814783830391856,1.469269448851495
2.03125,1.4814783830391856,1.469269448851495
2.0318750000000003,1.4811397053170847,1.469269448851495
2.0325,1.4811397053170847,1.469269448851495
2.033125,1.4808010275949839,1.469269448851495
2.0337500000000004,1.480123672150782,1.4692694488514952
2.034375,1.4797849944286816,1.46960212006051
2.035,1.4794463167065806,1.4696021200605103
2.035625,1.4787689612623791,1.4696021200605103
2.03625,1.4784302835402783,1.4699347912695255
2.036875,1.4777529280960766,1.4699347912695255
2.0375,1.4777529280960766,1.4699347912695255
2.038125,1.4774142503739758,1.4699347912695255
2.0387500000000003,1.4767368949297741,1.4699347912695255
2.039375,1.4767368949297741,1.4699347912695255
2.04,1.4760595394855724,1.4699347912695255
2.0406250000000004,1.4757208617634716,1.4699347912695255
2.04125,1.4757208617634716,1.4699347912695255
2.041875,1.4757208617634716,1.4699347912695255
2.0425,1.4757208617634716,1.4699347912695255
2.043125,1.4757208617634716,1.4699347912695255
2.04375,1.4760595394855724,1.4696021200605103
2.044375,1.4763982172076733,1.4696021200605103
2.045,1.4767368949297741,1.4696021200605103
2.0456250000000002,1.477075572651875,1.469269448851495
2.04625,1.4777529280960766,1.469269448851495
2.046875,1.4780916058181774,1.469269448851495
2.0475000000000003,1.4784302835402785,1.4689367776424798
2.048125,1.4787689612623791,1.4689367776424798
2.04875,1.47910763898448,1.4689367776424798
2.0493750000000004,1.4794463167065808,1.4689367776424798
2.05,1.4797849944286812,1.4689367776424798
2.050625,1.4801236721507822,1.4689367776424798
2.05125,1.4801236721507822,1.4689367776424798
2.051875,1.4797849944286814,1.4689367776424798
2.0525,1.4794463167065806,1.4689367776424798
2.053125,1.4794463167065806,1.4689367776424798
2.05375,1.4794463167065806,1.4689367776424798
2.0543750000000003,1.47910763898448,1.469269448851495
2.055,1.4787689612623791,1.469269448851495
2.055625,1.4784302835402783,1.4696021200605103
2.0562500000000004,1.4780916058181772,1.4696021200605105
2.056875,1.4777529280960768,1.4699347912695253
2.0575,1.4774142503739758,1.4699347912695255
2.058125,1.4774142503739758,1.4702674624785408
2.05875,1.4770755726518752,1.4702674624785408
2.059375,1.4767368949297741,1.470600133687556
2.06,1.4763982172076733,1.4702674624785408
2.060625,1.4763982172076733,1.470600133687556
2.0612500000000002,1.4763982172076733,1.470600133687556
2.061875,1.4763982172076733,1.470600133687556
2.0625,1.4763982172076733,1.470600133687556
2.0631250000000003,1.4767368949297743,1.470600133687556
2.06375,1.477075572651875,1.470600133687556
2.064375,1.4774142503739758,1.470600133687556
2.0650000000000004,1.4780916058181774,1.470600133687556
2.065625,1.4780916058181774,1.470600133687556
2.06625,1.4784302835402783,1.470600133687556
2.066875,1.4787689612623791,1.4702674624785408
2.0675,1.47910763898448,1.4702674624785408
2.068125,1.47910763898448,1.4702674624785408
2.06875,1.47910763898448,1.4699347912695255
2.069375,1.4794463167065806,1.4699347912695255
2.0700000000000003,1.4797849944286814,1.4702674624785408
2.070625,1.4801236721507822,1.4699347912695255
2.07125,1.4801236721507822,1.4699347912695255
2.0718750000000004,1.4797849944286814,1.4699347912695255
2.0725,1.4797849944286814,1.4699347912695255
2.073125,1.4797849944286814,1.4702674624785408
2.07375,1.4797849944286814,1.4699347912695255
2.074375,1.4791076389844802,1.4702674624785406
2.075,1.47910763898448,1.4702674624785408
2.075625,1.4787689612623791,1.470600133687556
2.07625,1.4780916058181774,1.470600133687556
2.0768750000000002,1.4777529280960766,1.470600133687556
2.0775,1.4774142503739758,1.470932804896571
2.078125,1.477075572651875,1.470932804896571
2.0787500000000003,1.4763982172076733,1.4712654761055863
2.079375,1.4763982172076733,1.4712654761055863
2.08,1.4760595394855724,1.4712654761055863
2.0806250000000004,1.4760595394855724,1.4712654761055866
2.08125,1.4760595394855724,1.4715981473146014
2.081875,1.4760595394855724,1.4715981473146016
2.0825,1.4760595394855724,1.4715981473146016
2.083125,1.4763982172076733,1.4715981473146016
2.08375,1.4767368949297741,1.4715981473146016
2.084375,1.4774142503739758,1.4715981473146016
2.085,1.4777529280960766,1.4715981473146016
2.0856250000000003,1.4780916058181774,1.4712654761055863
2.08625,1.4787689612623791,1.4712654761055863
2.086875,1.47910763898448,1.4712654761055863
2.0875000000000004,1.4794463167065808,1.470932804896571
2.088125,1.4797849944286812,1.470932804896571
2.08875,1.480462349872883,1.470932804896571
2.089375,1.480462349872883,1.470600133687556
2.09,1.4808010275949837,1.470600133687556
2.090625,1.4808010275949839,1.470600133687556
2.09125,1.4808010275949839,1.4702674624785408
2.091875,1.4808010275949839,1.470600133687556
2.0925000000000002,1.480462349872883,1.4702674624785408
2.093125,1.4801236721507822,1.4702674624785408
2.09375,1.4797849944286814,1.4702674624785408
2.0943750000000003,1.4794463167065803,1.470600133687556
2.095,1.47910763898448,1.470600133687556
2.095625,1.4784302835402783,1.470600133687556
2.0962500000000004,1.4780916058181772,1.470600133687556
2.096875,1.4777529280960768,1.470600133687556
2.0975,1.4774142503739758,1.470600133687556
2.098125,1.477075572651875,1.470932804896571
2.09875,1.4763982172076733,1.470932804896571
2.099375,1.4763982172076733,1.4712654761055863
2.1,1.4760595394855724,1.4712654761055863
2.100625,1.4760595394855724,1.4712654761055863
2.1012500000000003,1.4757208617634716,1.4712654761055863
2.101875,1.4760595394855724,1.4712654761055863
2.1025,1.4760595394855724,1.4712654761055863
2.1031250000000004,1.4763982172076735,1.4712654761055863
2.10375,1.476736894929774,1.4712654761055863
2.104375,1.477075572651875,1.470932804896571
2.105,1.4777529280960766,1.470932804896571
2.105625,1.4780916058181772,1.470932804896571
2.10625,1.4784302835402783,1.470600133687556
2.106875,1.47910763898448,1.470932804896571
2.1075,1.4794463167065806,1.470600133687556
2.1081250000000002,1.4797849944286814,1.470600133687556
2.10875,1.4801236721507822,1.4702674624785408
2.109375,1.4801236721507822,1.4702674624785408
2.1100000000000003,1.4804623498728833,1.4702674624785408
2.110625,1.4808010275949839,1.4702674624785408
2.11125,1.4808010275949839,1.4702674624785408
2.1118750000000004,1.4808010275949839,1.4702674624785406
2.1125,1.4808010275949839,1.4699347912695258
2.113125,1.480462349872883,1.4702674624785408
2.11375,1.480462349872883,1.4702674624785408
2.114375,1.4801236721507822,1.4702674624785408
2.115,1.4794463167065806,1.4702674624785408
2.115625,1.47910763898448,1.4702674624785408
2.11625,1.4787689612623791,1.470600133687556
2.1168750000000003,1.4780916058181774,1.470600133687556
2.1175,1.4777529280960766,1.470600133687556
2.118125,1.4774142503739758,1.470932804896571
2.1187500000000004,1.4770755726518747,1.470932804896571
2.119375,1.4767368949297743,1.470932804896571
2.12,1.4767368949297741,1.4712654761055863
2.120625,1.4763982172076733,1.4712654761055863
2.12125,1.4763982172076733,1.4712654761055863
2.121875,1.4763982172076733,1.4712654761055863
2.1225,1.4767368949297741,1.4712654761055863
2.123125,1.4767368949297741,1.4712654761055863
2.1237500000000002,1.477075572651875,1.4712654761055863
2.124375,1.4777529280960766,1.470932804896571
2.125,1.4777529280960766,1.470932804896571
2.1256250000000003,1.4780916058181777,1.4709328048965709
2.12625,1.4787689612623791,1.470600133687556
2.126875,1.47910763898448,1.470600133687556
2.1275000000000004,1.4794463167065808,1.4706001336875558
2.128125,1.4797849944286812,1.470267462478541
2.12875,1.4801236721507822,1.4702674624785408
2.129375,1.480462349872883,1.4702674624785408
2.13,1.480462349872883,1.4699347912695255
2.130625,1.480462349872883,1.4699347912695255
2.13125,1.480462349872883,1.4699347912695255
2.131875,1.480462349872883,1.4699347912695255
2.1325000000000003,1.4801236721507822,1.4699347912695255
2.133125,1.4797849944286814,1.4699347912695255
2.13375,1.4794463167065806,1.4699347912695255
2.1343750000000004,1.4787689612623791,1.4699347912695255
2.135,1.4787689612623791,1.4699347912695255
2.135625,1.4780916058181774,1.4702674624785408
2.13625,1.4774142503739758,1.4702674624785408
2.136875,1.4770755726518752,1.4706001336875558
2.1375,1.4767368949297741,1.470600133687556
2.138125,1.4763982172076733,1.470600133687556
2.13875,1.4760595394855724,1.470932804896571
2.1393750000000002,1.4753821840413708,1.470932804896571
2.14,1.47504350631927,1.470932804896571
2.140625,1.47504350631927,1.470932804896571
2.1412500000000003,1.4747048285971691,1.4712654761055863
2.141875,1.4747048285971691,1.4712654761055863
2.1425,1.4747048285971691,1.4712654761055863
2.1431250000000004,1.4750435063192702,1.4712654761055863
2.14375,1.4753821840413706,1.4712654761055863
2.144375,1.4757208617634716,1.470932804896571
2.145,1.4760595394855724,1.470932804896571
2.145625,1.4767368949297741,1.470932804896571
2.14625,1.477075572651875,1.470932804896571
2.146875,1.4774142503739758,1.470600133687556
2.1475,1.4780916058181774,1.470600133687556
2.1481250000000003,1.4787689612623791,1.470600133687556
2.14875,1.47910763898448,1.4702674624785408
2.149375,1.47910763898448,1.4702674624785408
2.1500000000000004,1.4794463167065808,1.4702674624785408
2.150625,1.4797849944286812,1.4702674624785408
2.15125,1.4801236721507822,1.4702674624785408
2.151875,1.4801236721507822,1.4702674624785408
2.1525,1.4801236721507822,1.4702674624785408
2.153125,1.4801236721507822,1.4702674624785408
2.15375,1.4797849944286814,1.470600133687556
2.154375,1.4794463167065806,1.470600133687556
2.1550000000000002,1.4794463167065806,1.470932804896571
2.155625,1.4787689612623791,1.470932804896571
2.15625,1.4784302835402783,1.470932804896571
2.1568750000000003,1.4780916058181772,1.4712654761055863
2.1575,1.4777529280960766,1.4712654761055863
2.158125,1.4774142503739758,1.4712654761055863
2.1587500000000004,1.4767368949297741,1.4715981473146016
2.159375,1.4767368949297741,1.4715981473146016
2.16,1.4767368949297741,1.4715981473146016
2.160625,1.4763982172076733,1.4715981473146016
2.16125,1.4763982172076733,1.4719308185236168
2.161875,1.4763982172076733,1.4715981473146016
2.1625,1.4763982172076733,1.4715981473146016
2.163125,1.4767368949297741,1.4715981473146016
2.1637500000000003,1.477075572651875,1.4715981473146016
2.164375,1.477075572651875,1.4715981473146016
2.165,1.4774142503739758,1.4712654761055863
2.1656250000000004,1.4777529280960766,1.4715981473146014
2.16625,1.4777529280960766,1.4712654761055866
2.166875,1.4784302835402783,1.4712654761055863
2.1675,1.4787689612623791,1.470932804896571
2.168125,1.4791076389844797,1.470932804896571
2.16875,1.4794463167065806,1.470600133687556
2.169375,1.4801236721507822,1.470600133687556
2.17,1.4801236721507822,1.470600133687556
2.1706250000000002,1.480462349872883,1.470600133687556
2.17125,1.480462349872883,1.470600133687556
2.171875,1.480462349872883,1.470600133687556
2.1725000000000003,1.480462349872883,1.4702674624785408
2.173125,1.480462349872883,1.4702674624785408
2.17375,1.4801236721507822,1.4702674624785408
2.1743750000000004,1.4797849944286812,1.4706001336875558
2.175,1.4791076389844802,1.470267462478541
2.175625,1.4787689612623791,1.470600133687556
2.17625,1.4784302835402783,1.470932804896571
2.176875,1.4777529280960766,1.470932804896571
2.1775,1.4774142503739758,1.470932804896571
2.178125,1.477075572651875,1.470932804896571
2.17875,1.4767368949297741,1.470932804896571
2.1793750000000003,1.4763982172076733,1.4712654761055863
2.18,1.4760595394855724,1.4712654761055863
2.180625,1.4760595394855724,1.4712654761055863
2.1812500000000004,1.4760595394855724,1.4712654761055863
2.181875,1.4760595394855724,1.4712654761055863
2.1825,1.4760595394855724,1.4712654761055863
2.183125,1.4763982172076733,1.4712654761055863
2.18375,1.476736894929774,1.4712654761055863
2.184375,1.4767368949297741,1.4712654761055863
2.185,1.477075572651875,1.4712654761055863
2.185625,1.4777529280960766,1.470932804896571
2.1862500000000002,1.4780916058181774,1.470932804896571
2.186875,1.4784302835402783,1.470932804896571
2.1875,1.4787689612623791,1.470932804896571
2.1881250000000003,1.4794463167065808,1.4709328048965709
2.18875,1.4797849944286814,1.470600133687556
2.189375,1.4801236721507822,1.470600133687556
2.1900000000000004,1.4804623498728833,1.470600133687556
2.190625,1.4808010275949837,1.470600133687556
2.19125,1.4808010275949839,1.4702674624785408
2.191875,1.4808010275949839,1.4702674624785408
2.1925,1.4808010275949839,1.4702674624785408
2.193125,1.480462349872883,1.4702674624785408
2.19375,1.4801236721507822,1.4702674624785408
2.194375,1.4794463167065806,1.4702674624785408
2.1950000000000003,1.4787689612623791,1.4702674624785408
2.195625,1.4780916058181774,1.470600133687556
2.19625,1.4774142503739758,1.470600133687556
2.1968750000000004,1.476736894929774,1.4706001336875563
2.1975,1.4763982172076735,1.4709328048965709
2.198125,1.4757208617634716,1.470932804896571
2.19875,1.47504350631927,1.470932804896571
2.199375,1.4747048285971693,1.4712654761055861
2.2,1.4747048285971691,1.4712654761055863
2.200625,1.4743661508750683,1.4712654761055863
2.20125,1.4747048285971691,1.4712654761055863
2.2018750000000002,1.4747048285971691,1.4712654761055863
2.2025,1.47504350631927,1.4712654761055863
2.203125,1.4753821840413708,1.4712654761055863
2.2037500000000003,1.4757208617634718,1.4712654761055863
2.204375,1.4760595394855724,1.4712654761055863
2.205,1.4763982172076733,1.4712654761055863
2.2056250000000004,1.4767368949297743,1.470932804896571
2.20625,1.4770755726518747,1.470932804896571
2.206875,1.477075572651875,1.470600133687556
2.2075,1.4777529280960766,1.470600133687556
2.208125,1.4780916058181774,1.4702674624785408
2.20875,1.4784302835402783,1.4702674624785408
2.209375,1.4787689612623791,1.4702674624785408
2.21,1.4787689612623791,1.4702674624785408
2.2106250000000003,1.4787689612623791,1.4702674624785408
2.21125,1.4787689612623791,1.4699347912695255
2.211875,1.4787689612623791,1.4699347912695255
2.2125000000000004,1.478768961262379,1.4699347912695255
2.213125,1.4784302835402785,1.4699347912695255
2.21375,1.4780916058181774,1.4699347912695255
2.214375,1.4777529280960766,1.4699347912695255
2.215,1.477414250373976,1.4699347912695255
2.215625,1.4774142503739758,1.4702674624785408
2.21625,1.4767368949297741,1.4702674624785408
2.216875,1.4763982172076733,1.470600133687556
2.2175000000000002,1.4760595394855724,1.470600133687556
2.218125,1.4757208617634716,1.470600133687556
2.21875,1.4753821840413708,1.470932804896571
2.2193750000000003,1.4753821840413706,1.4712654761055863
2.22,1.47504350631927,1.4712654761055863
2.220625,1.47504350631927,1.4712654761055863
2.2212500000000004,1.4750435063192702,1.4715981473146014
2.221875,1.4753821840413706,1.4712654761055866
2.2225,1.4753821840413708,1.4712654761055863
2.223125,1.4753821840413708,1.4715981473146016
2.22375,1.4757208617634716,1.4712654761055863
2.224375,1.4763982172076733,1.4712654761055863
2.225,1.4767368949297741,1.4712654761055863
